5.105007322469074097e+03
5.105007322469074097e+03
5.105961916040764663e+03
5.105007322469074097e+03
5.101986796213253911e+03
5.098017861032455585e+03
5.093975903614457820e+03
5.091996891996892373e+03
5.095005597711158771e+03
5.098017861032455585e+03
5.101033688274487758e+03
5.101033688274487758e+03
5.110022924691607841e+03
5.110022924691607841e+03
5.108987152301359856e+03
5.116006744941294528e+03
5.124968718718718264e+03
5.142987192365645569e+03
5.156990194998346851e+03
5.166992557083386600e+03
5.170988053718811898e+03
5.170988053718811898e+03
5.169030303986370200e+03
5.169030303986370200e+03
5.160970231532524849e+03
5.135008070708811829e+03
5.112973192272883352e+03
5.098969842208459340e+03
5.078973882042935657e+03
5.062964508104266315e+03
5.057962737137829208e+03
5.043016544824932680e+03
5.028004112384723157e+03
5.024996932891669530e+03
5.018993352326685454e+03
5.011010857929347367e+03
5.014998928647953107e+03
5.044025738123826159e+03
5.058977921877411973e+03
5.070015008742205282e+03
5.081021569570004431e+03
5.091996891996892373e+03
5.101986796213253911e+03
5.106996462025217625e+03
5.112015975537458871e+03
5.128016526338852600e+03
5.135008070708811829e+03
5.140969923278472379e+03
5.130023640661938771e+03
5.103019731821650566e+03
5.091996891996892373e+03
5.078973882042935657e+03
5.067976181269817062e+03
5.057026005092985542e+03
5.032019288357878395e+03
5.014001315970681389e+03
4.990025127541308393e+03
4.958986621466190627e+03
4.939028985725698476e+03
4.935012124041748393e+03
4.921004415342564243e+03
4.897980537825677857e+03
4.886002713866066188e+03
4.894980579623543235e+03
4.915025424872876101e+03
4.923000646043359666e+03
4.924036366368623021e+03
4.926035058179741100e+03
4.944021968736797135e+03
4.958986621466190627e+03
4.961013792790201478e+03
4.959962460075988020e+03
4.949996978669405507e+03
4.939028985725698476e+03
4.924036366368623021e+03
4.913035655381293509e+03
4.905019235663068685e+03
4.905019235663068685e+03
4.899005756148612818e+03
4.905973948195837693e+03
4.905973948195837693e+03
4.899005756148612818e+03
4.894980579623543235e+03
4.891035018061318624e+03
4.894980579623543235e+03
4.903991499169373128e+03
4.915025424872876101e+03
4.924036366368623021e+03
4.929963138493944825e+03
4.924036366368623021e+03
4.924036366368623021e+03
4.928035373208404053e+03
4.929963138493944825e+03
4.931001790793216060e+03
4.926997970077437458e+03
4.913035655381293509e+03
4.902010651666566446e+03
4.897980537825677857e+03
4.905973948195837693e+03
4.915984036967023712e+03
4.921004415342564243e+03
4.926035058179741100e+03
4.926997970077437458e+03
4.926997970077437458e+03
4.919969969969969497e+03
4.915984036967023712e+03
4.908987400560307833e+03
4.902010651666566446e+03
4.897980537825677857e+03
4.894980579623543235e+03
4.891035018061318624e+03
4.893007003449460171e+03
4.902010651666566446e+03
4.908031514933644758e+03
4.910017232336855159e+03
4.924036366368623021e+03
4.933971781783138795e+03
4.931966645594388865e+03
4.931966645594388865e+03
4.937986949379869657e+03
4.944021968736797135e+03
4.939028985725698476e+03
4.928035373208404053e+03
4.929963138493944825e+03
4.931001790793216060e+03
4.931001790793216060e+03
4.931001790793216060e+03
4.931001790793216060e+03
4.939028985725698476e+03
4.952016805452703920e+03
4.967029968621625812e+03
4.981982940809779393e+03
4.981982940809779393e+03
4.979030542470748514e+03
4.979030542470748514e+03
4.979030542470748514e+03
4.979030542470748514e+03
4.980998419068466319e+03
4.975023913274524602e+03
4.964020057870896380e+03
4.952989902654332582e+03
4.939028985725698476e+03
4.928035373208404053e+03
4.928035373208404053e+03
4.935012124041748393e+03
4.944991926112612418e+03
4.955012173176670331e+03
4.959962460075988020e+03
4.964020057870896380e+03
4.959962460075988020e+03
4.957036095730840316e+03
4.947978798906724478e+03
4.940965363330668879e+03
4.939028985725698476e+03
4.926997970077437458e+03
4.905019235663068685e+03
4.884036369056491822e+03
4.871981681931723870e+03
4.870026604045598106e+03
4.879018448755937243e+03
4.894980579623543235e+03
4.905973948195837693e+03
4.924036366368623021e+03
4.949996978669405507e+03
4.967029968621625812e+03
4.982967851820310898e+03
5.006034680314720390e+03
5.029007305543618713e+03
5.047988784643588588e+03
5.058977921877411973e+03
5.052035954917590061e+03
5.036969855348716010e+03
5.024996932891669530e+03
5.007029125026740985e+03
4.982967851820310898e+03
4.967029968621625812e+03
4.949025057016418032e+03
4.931966645594388865e+03
4.924036366368623021e+03
4.910017232336855159e+03
4.903991499169373128e+03
4.897980537825677857e+03
4.891035018061318624e+03
4.893007003449460171e+03
4.883017405817835424e+03
4.869013477569579663e+03
4.875969107602564691e+03
4.880035743540099247e+03
4.884036369056491822e+03
4.897980537825677857e+03
4.905973948195837693e+03
4.913035655381293509e+03
4.928035373208404053e+03
4.949025057016418032e+03
4.965976084749101574e+03
4.972004309363761422e+03
4.976988623418442330e+03
4.981982940809779393e+03
4.982967851820310898e+03
4.985014681048515740e+03
4.989037425012941640e+03
5.003970556794233744e+03
5.022994144157954906e+03
5.034029282082007740e+03
5.038983806726436342e+03
5.043016544824932680e+03
5.039991386470605903e+03
5.039991386470605903e+03
5.050011558911921384e+03
5.061009514395155747e+03
5.057026005092985542e+03
5.050011558911921384e+03
5.061009514395155747e+03
5.081021569570004431e+03
5.087016596028752247e+03
5.084964074551126032e+03
5.087964472601356647e+03
5.078973882042935657e+03
5.074019015763882635e+03
5.068995389994121069e+03
5.054997608799617410e+03
5.033024084541656521e+03
5.012007280848004484e+03
4.992001706302655293e+03
4.968008975680756521e+03
4.949025057016418032e+03
4.944021968736797135e+03
4.946036921312019331e+03
4.955012173176670331e+03
4.959962460075988020e+03
4.946036921312019331e+03
4.937019737833358704e+03
4.939028985725698476e+03
4.946036921312019331e+03
4.949996978669405507e+03
4.952016805452703920e+03
4.944021968736797135e+03
4.946036921312019331e+03
4.955012173176670331e+03
4.952989902654332582e+03
4.952016805452703920e+03
4.961013792790201478e+03
4.961013792790201478e+03
4.961013792790201478e+03
4.962967450736864521e+03
4.959962460075988020e+03
4.955012173176670331e+03
4.949025057016418032e+03
4.946036921312019331e+03
4.940965363330668879e+03
4.937019737833358704e+03
4.933971781783138795e+03
4.923000646043359666e+03
4.908987400560307833e+03
4.887970642639776088e+03
4.879018448755937243e+03
4.875969107602564691e+03
4.871981681931723870e+03
4.868000772533464442e+03
4.872996044139080368e+03
4.875969107602564691e+03
4.864965183436521329e+03
4.864026363447435870e+03
4.864026363447435870e+03
4.868000772533464442e+03
4.879018448755937243e+03
4.887970642639776088e+03
4.881998867665901344e+03
4.872996044139080368e+03
4.872996044139080368e+03
4.875969107602564691e+03
4.880035743540099247e+03
4.894030140546353323e+03
4.894980579623543235e+03
4.894980579623543235e+03
4.899005756148612818e+03
4.897980537825677857e+03
4.887970642639776088e+03
4.875026036242449663e+03
4.865976625729517764e+03
4.864965183436521329e+03
4.862005519779208953e+03
4.858977400794828100e+03
4.845970687844772328e+03
4.836029281539642398e+03
4.836029281539642398e+03
4.853004339519246059e+03
4.853004339519246059e+03
4.857968865826537694e+03
4.870026604045598106e+03
4.868000772533464442e+03
4.862005519779208953e+03
4.857968865826537694e+03
4.862005519779208953e+03
4.864965183436521329e+03
4.855017706064511913e+03
4.850992642160274045e+03
4.857968865826537694e+03
4.864026363447435870e+03
4.864965183436521329e+03
4.868000772533464442e+03
4.862005519779208953e+03
4.857968865826537694e+03
4.854010814013777235e+03
4.850992642160274045e+03
4.855017706064511913e+03
4.850992642160274045e+03
4.833033422814832193e+03
4.823997055576002822e+03
4.814994416034796814e+03
4.797019339159968695e+03
4.772982185255859804e+03
4.756975697569756449e+03
4.754973806794270786e+03
4.754973806794270786e+03
4.762022409859175241e+03
4.770966802562608791e+03
4.769994468221388161e+03
4.774025292849233665e+03
4.774999271370697898e+03
4.777018063067659568e+03
4.786018929656462205e+03
4.786018929656462205e+03
4.807999882613607951e+03
4.839028856661842838e+03
4.857032743874419793e+03
4.868000772533464442e+03
4.872996044139080368e+03
4.871981681931723870e+03
4.872996044139080368e+03
4.897028933524628883e+03
4.923000646043359666e+03
4.935012124041748393e+03
4.939028985725698476e+03
4.955012173176670331e+03
4.969968148035795821e+03
4.992001706302655293e+03
5.020992951271836318e+03
5.062025922664565769e+03
5.105961916040764663e+03
5.151963019449379317e+03
5.184980062029241708e+03
5.203010622925829921e+03
5.222997959704157438e+03
5.256007186166629253e+03
5.297988617255206009e+03
5.349015638773711544e+03
5.403974602127484104e+03
5.452987185887835039e+03
5.491001106009317482e+03
5.531042166030856606e+03
5.567979065064826500e+03
5.580021116446987435e+03
5.514009255363904231e+03
5.383996056523167681e+03
5.242971662639806709e+03
5.070015008742205282e+03
4.903991499169373128e+03
4.762022409859175241e+03
4.639969413330690259e+03
4.544975379707330831e+03
4.496020856201976130e+03
4.475999235035379570e+03
4.451977554652789877e+03
4.430008382229672861e+03
4.409026077128017278e+03
4.406002501042101358e+03
4.434985043920793942e+03
4.485005269713518828e+03
4.546993602819755324e+03
4.595007712803253526e+03
4.627976610830202844e+03
4.650968034974166585e+03
4.662018922956533970e+03
4.672989161437535586e+03
4.690985096849007277e+03
4.707969942096869090e+03
4.708984824097493401e+03
4.708984824097493401e+03
4.718002620552620101e+03
4.719021833054899616e+03
4.719021833054899616e+03
4.719973495433724565e+03
4.722014065021904571e+03
4.719021833054899616e+03
4.707023113498915336e+03
4.695017982261323596e+03
4.678994716550049816e+03
4.665005694760820006e+03
4.653015435736499057e+03
4.642993779490740053e+03
4.629022688102167194e+03
4.621970829689395032e+03
4.623992774790794101e+03
4.633015199717214273e+03
4.644968317196603493e+03
4.648988394199937829e+03
4.654006760787432540e+03
4.655990678640445367e+03
4.654006760787432540e+03
4.664009679026403319e+03
4.675990010702817926e+03
4.674989299472106723e+03
4.675990010702817926e+03
4.679997143469256116e+03
4.684011150025015922e+03
4.693000673149911563e+03
4.700001434370383322e+03
4.689977957804941070e+03
4.687026176512659731e+03
4.694009110964673710e+03
4.701012883417979538e+03
4.700001434370383322e+03
4.695017982261323596e+03
4.688971251126915377e+03
4.674989299472106723e+03
4.668994015389000197e+03
4.670990734141126268e+03
4.671989734084266274e+03
4.665005694760820006e+03
4.650968034974166585e+03
4.636030504110131915e+03
4.637999122422114851e+03
4.649978003888344574e+03
4.655990678640445367e+03
4.650968034974166585e+03
4.649978003888344574e+03
4.653015435736499057e+03
4.656983271983058330e+03
4.662018922956533970e+03
4.655990678640445367e+03
4.634981257514676145e+03
4.615980615896091876e+03
4.601977472542906071e+03
4.591981165127457643e+03
4.593976950901494092e+03
4.595974472263132157e+03
4.593976950901494092e+03
4.605017215937038600e+03
4.624971770551038389e+03
4.642993779490740053e+03
4.649978003888344574e+03
4.655990678640445367e+03
4.653015435736499057e+03
4.636030504110131915e+03
4.612991327852235372e+03
4.595974472263132157e+03
4.595007712803253526e+03
4.584977471804773813e+03
4.555021129893238140e+03
4.519025224454895579e+03
4.510999752195820292e+03
4.523017461522534177e+03
4.533028982499827180e+03
4.537988532808907621e+03
4.541007234125114337e+03
4.548003386678140487e+03
4.551983774172037556e+03
4.561997048422576881e+03
4.573969122532734218e+03
4.576971965749885385e+03
4.584977471804773813e+03
4.593976950901494092e+03
4.605017215937038600e+03
4.614030640982313344e+03
4.617021276595743984e+03
4.610005909001378313e+03
4.599006287895800597e+03
4.587031385614693136e+03
4.570970216921252359e+03
4.566001978735559533e+03
4.555971134995342254e+03
4.548003386678140487e+03
4.550972222222221717e+03
4.549013619136205307e+03
4.536983190717510297e+03
4.540000554216199816e+03
4.540000554216199816e+03
4.529019060387842728e+03
4.515973428154028625e+03
4.513982642237222535e+03
4.514977815746686247e+03
4.515973428154028625e+03
4.522018741115910416e+03
4.530020875672238617e+03
4.537988532808907621e+03
4.550972222222221717e+03
4.567020223842112500e+03
4.581003243485069106e+03
4.587994791302035082e+03
4.599006287895800597e+03
4.610005909001378313e+03
4.615980615896091876e+03
4.620993103837312447e+03
4.624971770551038389e+03
4.620993103837312447e+03
4.610978990473242447e+03
4.595007712803253526e+03
4.564984187575752912e+03
4.548003386678140487e+03
4.533028982499827180e+03
4.518028266115132283e+03
4.504983845466418643e+03
4.503993072260174813e+03
4.499972533509118875e+03
4.485987705871883918e+03
4.475021168501270040e+03
4.475999235035379570e+03
4.492014531496332893e+03
4.503993072260174813e+03
4.515973428154028625e+03
4.529019060387842728e+03
4.536983190717510297e+03
4.537988532808907621e+03
4.544975379707330831e+03
4.554008227707360675e+03
4.555021129893238140e+03
4.557999137559292649e+03
4.560028946379615263e+03
4.564984187575752912e+03
4.566001978735559533e+03
4.567020223842112500e+03
4.570013947001394627e+03
4.576013183252800445e+03
4.579978754332997596e+03
4.576013183252800445e+03
4.573011597560464907e+03
4.573969122532734218e+03
4.582028191072827212e+03
4.589022870187527587e+03
4.612991327852235372e+03
4.642993779490740053e+03
4.668994015389000197e+03
4.700001434370383322e+03
4.715015468738758500e+03
4.716033390903857253e+03
4.715015468738758500e+03
4.703982313589250225e+03
4.684011150025015922e+03
4.661024182076813304e+03
4.629022688102167194e+03
4.591981165127457643e+03
4.570970216921252359e+03
4.557999137559292649e+03
4.533969835339697966e+03
4.503002734756139944e+03
4.488999095816094268e+03
4.499972533509118875e+03
4.496020856201976130e+03
4.493985983295160622e+03
4.497008124725515700e+03
4.509013348011559174e+03
4.518028266115132283e+03
4.529019060387842728e+03
4.543021933838005680e+03
4.546993602819755324e+03
4.540000554216199816e+03
4.530020875672238617e+03
4.536983190717510297e+03
4.551983774172037556e+03
4.563013507867985027e+03
4.570970216921252359e+03
4.576971965749885385e+03
4.581003243485069106e+03
4.587994791302035082e+03
4.589022870187527587e+03
4.591016084739113467e+03
4.603011828168459942e+03
4.605017215937038600e+03
4.597973731477323781e+03
4.599974730812965390e+03
4.599974730812965390e+03
4.599006287895800597e+03
4.599006287895800597e+03
4.597973731477323781e+03
4.601977472542906071e+03
4.603011828168459942e+03
4.593976950901494092e+03
4.584977471804773813e+03
4.579978754332997596e+03
4.576971965749885385e+03
4.576971965749885385e+03
4.579978754332997596e+03
4.591981165127457643e+03
4.607024351836229471e+03
4.605988192296879788e+03
4.595974472263132157e+03
4.595007712803253526e+03
4.599974730812965390e+03
4.607024351836229471e+03
4.610978990473242447e+03
4.623992774790794101e+03
4.627976610830202844e+03
4.639969413330690259e+03
4.649978003888344574e+03
4.655990678640445367e+03
4.657976288630483396e+03
4.653015435736499057e+03
4.646022090830461821e+03
4.642007140023800275e+03
4.642993779490740053e+03
4.647010437939641633e+03
4.644968317196603493e+03
4.642007140023800275e+03
4.638984058668630496e+03
4.642993779490740053e+03
4.648988394199937829e+03
4.657976288630483396e+03
4.656983271983058330e+03
4.656983271983058330e+03
4.665005694760820006e+03
4.674989299472106723e+03
4.689977957804941070e+03
4.689977957804941070e+03
4.688971251126915377e+03
4.690985096849007277e+03
4.684011150025015922e+03
4.679997143469256116e+03
4.668994015389000197e+03
4.654006760787432540e+03
4.638984058668630496e+03
4.627976610830202844e+03
4.620993103837312447e+03
4.610978990473242447e+03
4.610978990473242447e+03
4.621970829689395032e+03
4.634981257514676145e+03
4.644968317196603493e+03
4.665005694760820006e+03
4.693000673149911563e+03
4.719973495433724565e+03
4.726986829007920278e+03
4.726986829007920278e+03
4.726032336693926482e+03
4.712980942107155897e+03
4.683007003001286648e+03
4.642007140023800275e+03
4.612991327852235372e+03
4.582028191072827212e+03
4.529019060387842728e+03
4.478017848113375294e+03
4.442983050847457889e+03
4.427972972972972457e+03
4.430008382229672861e+03
4.434024817656531013e+03
4.431026788732775458e+03
4.424983119513842212e+03
4.416990186563140014e+03
4.424983119513842212e+03
4.442983050847457889e+03
4.463013661313829289e+03
4.475021168501270040e+03
4.481018543843334555e+03
4.485005269713518828e+03
4.486970572527969125e+03
4.493985983295160622e+03
4.492014531496332893e+03
4.470015278838808626e+03
4.459976316541670712e+03
4.461008549801230401e+03
4.463013661313829289e+03
4.465020576131687449e+03
4.457003726978427039e+03
4.442019358512051440e+03
4.427015780371811161e+03
4.409026077128017278e+03
4.396012772008908541e+03
4.385011709601873008e+03
4.368991586554487185e+03
4.362012273858810659e+03
4.368001493014823609e+03
4.372022896179967574e+03
4.374007181664063864e+03
4.383017429339611226e+03
4.381024962229085759e+03
4.379970859900282449e+03
4.381024962229085759e+03
4.379970859900282449e+03
4.376986989393817566e+03
4.378975784465707875e+03
4.383017429339611226e+03
4.385011709601873008e+03
4.400972412496305878e+03
4.411994398664296568e+03
4.413004538659411992e+03
4.411994398664296568e+03
4.411994398664296568e+03
4.404995563681337444e+03
4.401977511183954448e+03
4.394008475030842419e+03
4.388006535072448060e+03
4.383017429339611226e+03
4.376986989393817566e+03
4.373014813826237514e+03
4.372022896179967574e+03
4.366022651565623164e+03
4.354013580132081188e+03
4.357024134033641531e+03
4.364975755315181232e+03
4.368001493014823609e+03
4.378975784465707875e+03
4.387007805491960426e+03
4.375993269140880329e+03
4.369982129044304202e+03
4.376986989393817566e+03
4.378975784465707875e+03
4.383017429339611226e+03
4.387007805491960426e+03
4.387007805491960426e+03
4.378975784465707875e+03
4.374007181664063864e+03
4.364975755315181232e+03
4.362999653804159607e+03
4.362012273858810659e+03
4.357024134033641531e+03
4.358009256796297450e+03
4.362012273858810659e+03
4.357024134033641531e+03
4.354997341839447472e+03
4.354997341839447472e+03
4.369982129044304202e+03
4.376986989393817566e+03
4.364975755315181232e+03
4.366022651565623164e+03
4.368991586554487185e+03
4.372022896179967574e+03
4.372022896179967574e+03
4.362999653804159607e+03
4.354997341839447472e+03
4.348004936240230563e+03
4.347024330706572073e+03
4.347024330706572073e+03
4.342991199236559623e+03
4.350025223694341548e+03
4.362012273858810659e+03
4.364975755315181232e+03
4.357024134033641531e+03
4.354997341839447472e+03
4.354997341839447472e+03
4.361025340715502352e+03
4.358009256796297450e+03
4.358994825132032020e+03
4.368991586554487185e+03
4.368991586554487185e+03
4.375993269140880329e+03
4.378975784465707875e+03
4.368991586554487185e+03
4.357024134033641531e+03
4.350025223694341548e+03
4.340977438628565324e+03
4.332998333818200990e+03
4.340977438628565324e+03
4.354013580132081188e+03
4.358994825132032020e+03
4.358994825132032020e+03
4.362012273858810659e+03
4.368991586554487185e+03
4.368991586554487185e+03
4.361025340715502352e+03
4.354997341839447472e+03
4.354997341839447472e+03
4.332998333818200990e+03
4.296973352916491422e+03
4.278011332480351484e+03
4.269983580494670605e+03
4.259991159416521441e+03
4.237020753863062964e+03
4.220974120496206524e+03
4.217008571207948080e+03
4.215977663694497096e+03
4.224021244505175673e+03
4.234994571679677392e+03
4.244979919678714396e+03
4.248998275347847994e+03
4.251975656281224474e+03
4.255012466237273657e+03
4.258994488925860423e+03
4.253024245885468190e+03
4.253024245885468190e+03
4.257002546380502281e+03
4.260988296488946617e+03
4.263982510475496383e+03
4.259991159416521441e+03
4.260988296488946617e+03
4.260988296488946617e+03
4.267981347852137333e+03
4.274997390669032939e+03
4.274997390669032939e+03
4.286013263397469927e+03
4.300977882785325164e+03
4.303011201722938495e+03
4.296973352916491422e+03
4.296015628072843356e+03
4.296973352916491422e+03
4.292020329036990006e+03
4.295002031694432844e+03
4.300018372221201389e+03
4.299002886381526878e+03
4.309972904006524004e+03
4.326019222644697948e+03
4.335979886198226268e+03
4.342991199236559623e+03
4.337012918254976285e+03
4.333972620858408845e+03
4.351007183736339357e+03
4.354997341839447472e+03
4.339023001443383691e+03
4.307026998606693269e+03
4.267981347852137333e+03
4.234994571679677392e+03
4.206020152750144916e+03
4.194014949825927033e+03
4.188011247443762841e+03
4.178984555344412001e+03
4.182024709005513614e+03
4.184000510757837219e+03
4.186994467090046783e+03
4.191010948531668873e+03
4.194981436435795331e+03
4.199013263279298371e+03
4.208018698309960200e+03
4.217008571207948080e+03
4.220974120496206524e+03
4.224021244505175673e+03
4.241024048044316260e+03
4.246025061227663173e+03
4.238994036145357313e+03
4.238994036145357313e+03
4.244979919678714396e+03
4.242012324581844041e+03
4.244979919678714396e+03
4.248006741427368070e+03
4.244979919678714396e+03
4.244979919678714396e+03
4.256007273671905750e+03
4.265980992058325683e+03
4.274997390669032939e+03
4.285004380860217680e+03
4.303011201722938495e+03
4.317981155696119458e+03
4.330020879033750134e+03
4.340977438628565324e+03
4.351989587207140175e+03
4.362012273858810659e+03
4.366022651565623164e+03
4.364975755315181232e+03
4.364975755315181232e+03
4.362012273858810659e+03
4.344027575235317272e+03
4.324991420501042739e+03
4.320999050532756883e+03
4.306008200168208532e+03
4.279016924362724239e+03
4.256007273671905750e+03
4.241024048044316260e+03
4.220974120496206524e+03
4.204994610132950584e+03
4.194981436435795331e+03
4.191010948531668873e+03
4.185978180331638214e+03
4.185978180331638214e+03
4.179997448654165055e+03
4.172014260249554354e+03
4.172014260249554354e+03
4.173023777078743478e+03
4.179997448654165055e+03
4.186994467090046783e+03
4.184000510757837219e+03
4.185978180331638214e+03
4.188011247443762841e+03
4.186994467090046783e+03
4.185978180331638214e+03
4.191010948531668873e+03
4.194981436435795331e+03
4.201974865350090113e+03
4.201005153978307135e+03
4.201974865350090113e+03
4.208991650610147190e+03
4.212021492660102012e+03
4.212021492660102012e+03
4.210019144042861626e+03
4.208991650610147190e+03
4.206020152750144916e+03
4.210019144042861626e+03
4.215977663694497096e+03
4.217008571207948080e+03
4.212996297058218261e+03
4.212021492660102012e+03
4.215977663694497096e+03
4.220974120496206524e+03
4.220974120496206524e+03
4.220974120496206524e+03
4.231002647039834301e+03
4.238007165306465140e+03
4.248998275347847994e+03
4.271987692628614241e+03
4.300018372221201389e+03
4.319005628270525449e+03
4.333972620858408845e+03
4.348004936240230563e+03
4.354013580132081188e+03
4.342991199236559623e+03
4.333972620858408845e+03
4.330020879033750134e+03
4.315024296456273078e+03
4.296015628072843356e+03
4.285004380860217680e+03
4.270985401459854074e+03
4.251975656281224474e+03
4.233025010334848957e+03
4.215001479308969465e+03
4.208018698309960200e+03
4.219017575484452209e+03
4.224021244505175673e+03
4.225982434192707842e+03
4.225982434192707842e+03
4.230019493177387631e+03
4.230019493177387631e+03
4.241024048044316260e+03
4.253024245885468190e+03
4.244979919678714396e+03
4.219017575484452209e+03
4.199013263279298371e+03
4.189992711277061062e+03
4.194014949825927033e+03
4.194014949825927033e+03
4.194981436435795331e+03
4.208018698309960200e+03
4.208991650610147190e+03
4.204994610132950584e+03
4.201005153978307135e+03
4.208018698309960200e+03
4.217008571207948080e+03
4.225982434192707842e+03
4.233025010334848957e+03
4.244979919678714396e+03
4.249990272247369830e+03
4.242012324581844041e+03
4.234994571679677392e+03
4.222986905866584493e+03
4.204994610132950584e+03
4.208991650610147190e+03
4.215977663694497096e+03
4.219995621208803641e+03
4.219995621208803641e+03
4.225982434192707842e+03
4.231002647039834301e+03
4.225982434192707842e+03
4.227018240924688143e+03
4.231002647039834301e+03
4.237020753863062964e+03
4.238007165306465140e+03
4.244979919678714396e+03
4.249990272247369830e+03
4.253024245885468190e+03
4.260988296488946617e+03
4.265980992058325683e+03
4.263982510475496383e+03
4.267981347852137333e+03
4.269983580494670605e+03
4.265980992058325683e+03
4.265980992058325683e+03
4.269983580494670605e+03
4.267981347852137333e+03
4.262983971690257931e+03
4.266980935514116027e+03
4.273993686901625551e+03
4.274997390669032939e+03
4.274997390669032939e+03
4.273993686901625551e+03
4.281980581001789687e+03
4.281980581001789687e+03
4.279016924362724239e+03
4.282988039997385386e+03
4.288986622686457849e+03
4.289997381513485379e+03
4.287976340033500492e+03
4.286013263397469927e+03
4.292976273140566263e+03
4.296015628072843356e+03
4.303011201722938495e+03
4.309972904006524004e+03
4.306008200168208532e+03
4.307026998606693269e+03
4.303011201722938495e+03
4.300977882785325164e+03
4.307989639894295578e+03
4.307026998606693269e+03
4.314001711539727694e+03
4.319005628270525449e+03
4.332998333818200990e+03
4.362999653804159607e+03
4.390005359056805901e+03
4.409026077128017278e+03
4.420983040328130301e+03
4.431985716797641544e+03
4.431026788732775458e+03
4.424027218966867622e+03
4.411994398664296568e+03
4.399022648247345387e+03
4.388006535072448060e+03
4.379970859900282449e+03
4.368991586554487185e+03
4.351007183736339357e+03
4.340977438628565324e+03
4.332024484723488968e+03
4.324991420501042739e+03
4.319005628270525449e+03
4.307026998606693269e+03
4.307989639894295578e+03
4.319005628270525449e+03
4.332998333818200990e+03
4.340000000000000000e+03
4.344027575235317272e+03
4.345006829061302597e+03
4.358994825132032020e+03
4.362999653804159607e+03
4.368991586554487185e+03
4.372022896179967574e+03
4.368991586554487185e+03
4.358009256796297450e+03
4.333972620858408845e+03
4.315024296456273078e+03
4.306008200168208532e+03
4.279016924362724239e+03
4.255012466237273657e+03
4.246025061227663173e+03
4.255012466237273657e+03
4.271987692628614241e+03
4.287976340033500492e+03
4.285004380860217680e+03
4.286013263397469927e+03
4.296015628072843356e+03
4.306008200168208532e+03
4.314001711539727694e+03
4.322994313759119905e+03
4.326019222644697948e+03
4.319005628270525449e+03
4.324991420501042739e+03
4.337012918254976285e+03
4.350025223694341548e+03
4.358994825132032020e+03
4.366022651565623164e+03
4.381024962229085759e+03
4.385011709601873008e+03
4.383017429339611226e+03
4.383017429339611226e+03
4.383017429339611226e+03
4.384014342672125167e+03
4.383017429339611226e+03
4.376986989393817566e+03
4.378975784465707875e+03
4.388006535072448060e+03
4.400972412496305878e+03
4.401977511183954448e+03
4.392006004878963722e+03
4.385011709601873008e+03
4.390005359056805901e+03
4.391005454082521283e+03
4.395010395010394859e+03
4.400972412496305878e+03
4.409026077128017278e+03
4.416990186563140014e+03
4.423012027050740471e+03
4.424027218966867622e+03
4.424983119513842212e+03
4.420028867036272459e+03
4.414015141309911996e+03
4.420028867036272459e+03
4.423012027050740471e+03
4.419015509103169279e+03
4.419015509103169279e+03
4.411994398664296568e+03
4.383017429339611226e+03
4.357024134033641531e+03
4.340977438628565324e+03
4.335979886198226268e+03
4.337012918254976285e+03
4.340000000000000000e+03
4.337012918254976285e+03
4.344027575235317272e+03
4.357024134033641531e+03
4.372022896179967574e+03
4.378975784465707875e+03
4.381024962229085759e+03
4.381024962229085759e+03
4.385011709601873008e+03
4.399022648247345387e+03
4.413004538659411992e+03
4.423012027050740471e+03
4.423012027050740471e+03
4.416990186563140014e+03
4.414015141309911996e+03
4.416990186563140014e+03
4.420028867036272459e+03
4.411994398664296568e+03
4.402983069067455290e+03
4.388006535072448060e+03
4.369982129044304202e+03
4.351007183736339357e+03
4.330020879033750134e+03
4.306008200168208532e+03
4.288986622686457849e+03
4.289997381513485379e+03
4.292976273140566263e+03
4.286013263397469927e+03
4.282988039997385386e+03
4.281980581001789687e+03
4.289997381513485379e+03
4.307026998606693269e+03
4.315024296456273078e+03
4.310993579623197547e+03
4.317981155696119458e+03
4.322994313759119905e+03
4.317981155696119458e+03
4.312014738781418600e+03
4.315024296456273078e+03
4.315024296456273078e+03
4.307989639894295578e+03
4.314001711539727694e+03
4.342991199236559623e+03
4.369982129044304202e+03
4.387007805491960426e+03
4.402983069067455290e+03
4.404995563681337444e+03
4.404995563681337444e+03
4.400972412496305878e+03
4.378975784465707875e+03
4.357024134033641531e+03
4.340000000000000000e+03
4.315024296456273078e+03
4.280973595850589845e+03
4.258994488925860423e+03
4.242012324581844041e+03
4.220974120496206524e+03
4.201974865350090113e+03
4.201974865350090113e+03
4.225982434192707842e+03
4.244979919678714396e+03
4.249990272247369830e+03
4.259991159416521441e+03
4.263982510475496383e+03
4.260988296488946617e+03
4.258994488925860423e+03
4.263982510475496383e+03
4.257002546380502281e+03
4.246025061227663173e+03
4.233025010334848957e+03
4.228000000000000000e+03
4.224021244505175673e+03
4.208991650610147190e+03
4.199013263279298371e+03
4.201005153978307135e+03
4.204994610132950584e+03
4.206020152750144916e+03
4.215977663694497096e+03
4.228000000000000000e+03
4.228000000000000000e+03
4.233025010334848957e+03
4.238007165306465140e+03
4.243990260076676350e+03
4.246025061227663173e+03
4.246025061227663173e+03
4.249990272247369830e+03
4.249990272247369830e+03
4.244979919678714396e+03
4.249990272247369830e+03
4.256007273671905750e+03
4.260988296488946617e+03
4.273993686901625551e+03
4.286013263397469927e+03
4.296015628072843356e+03
4.296973352916491422e+03
4.314001711539727694e+03
4.333972620858408845e+03
4.347024330706572073e+03
4.368991586554487185e+03
4.399022648247345387e+03
4.419015509103169279e+03
4.447023058235957251e+03
4.475999235035379570e+03
4.497008124725515700e+03
4.537988532808907621e+03
4.573969122532734218e+03
4.614030640982313344e+03
4.662018922956533970e+03
4.697979841426870735e+03
4.719021833054899616e+03
4.729033468515925961e+03
4.729989173583543561e+03
4.726986829007920278e+03
4.734021035598705566e+03
4.758979274686651479e+03
4.780014587892049349e+03
4.795966160241210673e+03
4.828973546533048648e+03
4.869013477569579663e+03
4.905973948195837693e+03
4.946036921312019331e+03
4.962967450736864521e+03
4.913035655381293509e+03
4.814004054887902385e+03
4.700001434370383322e+03
4.568994366668525799e+03
4.434024817656531013e+03
4.296973352916491422e+03
4.179997448654165055e+03
4.088974854932301696e+03
4.022020645889847401e+03
3.989990623820366636e+03
3.966997179142604637e+03
3.936023255534601049e+03
3.910983266095342969e+03
3.917014333018541038e+03
3.944979532867806938e+03
3.981990083608788609e+03
4.027013076393668598e+03
4.069019471488178169e+03
4.103980361213396463e+03
4.140017941299101949e+03
4.169996691185828240e+03
4.188011247443762841e+03
4.204994610132950584e+03
4.215977663694497096e+03
4.215001479308969465e+03
4.215001479308969465e+03
4.225982434192707842e+03
4.230019493177387631e+03
4.228000000000000000e+03
4.224021244505175673e+03
4.217008571207948080e+03
4.219995621208803641e+03
4.227018240924688143e+03
4.234009561958909217e+03
4.234994571679677392e+03
4.228000000000000000e+03
4.220974120496206524e+03
4.228000000000000000e+03
4.238994036145357313e+03
4.242012324581844041e+03
4.244979919678714396e+03
4.251975656281224474e+03
4.259991159416521441e+03
4.270985401459854074e+03
4.281980581001789687e+03
4.281980581001789687e+03
4.282988039997385386e+03
4.279016924362724239e+03
4.279016924362724239e+03
4.274997390669032939e+03
4.256007273671905750e+03
4.243990260076676350e+03
4.233025010334848957e+03
4.215977663694497096e+03
4.197023260579977432e+03
4.182985676717645219e+03
4.176002039125724878e+03
4.179997448654165055e+03
4.184000510757837219e+03
4.188011247443762841e+03
4.189992711277061062e+03
4.197991134342891201e+03
4.220974120496206524e+03
4.237020753863062964e+03
4.244979919678714396e+03
4.246025061227663173e+03
4.244979919678714396e+03
4.242012324581844041e+03
4.243990260076676350e+03
4.251975656281224474e+03
4.253024245885468190e+03
4.243990260076676350e+03
4.237020753863062964e+03
4.233025010334848957e+03
4.215001479308969465e+03
4.199013263279298371e+03
4.189992711277061062e+03
4.182024709005513614e+03
4.182985676717645219e+03
4.206020152750144916e+03
4.219995621208803641e+03
4.234994571679677392e+03
4.258994488925860423e+03
4.274997390669032939e+03
4.273993686901625551e+03
4.259991159416521441e+03
4.248006741427368070e+03
4.237020753863062964e+03
4.225982434192707842e+03
4.228000000000000000e+03
4.241024048044316260e+03
4.246025061227663173e+03
4.259991159416521441e+03
4.281980581001789687e+03
4.299002886381526878e+03
4.307989639894295578e+03
4.317981155696119458e+03
4.333972620858408845e+03
4.364975755315181232e+03
4.394008475030842419e+03
4.401977511183954448e+03
4.395010395010394859e+03
4.387007805491960426e+03
4.374007181664063864e+03
4.362012273858810659e+03
4.347024330706572073e+03
4.317981155696119458e+03
4.289997381513485379e+03
4.258994488925860423e+03
4.241024048044316260e+03
4.230019493177387631e+03
4.204994610132950584e+03
4.178984555344412001e+03
4.139024328625925591e+03
4.112995343115719152e+03
4.107015278944136298e+03
4.103003969396826506e+03
4.107993581064139107e+03
4.121998163360295621e+03
4.140017941299101949e+03
4.147984049623393730e+03
4.147984049623393730e+03
4.140017941299101949e+03
4.136986301369863213e+03
4.145989649893082969e+03
4.150979249537612304e+03
4.156982644879732106e+03
4.167981072555205174e+03
4.168988638243189598e+03
4.153978778159505964e+03
4.146986609967853838e+03
4.149980369061640886e+03
4.150979249537612304e+03
4.160994564941332101e+03
4.168988638243189598e+03
4.167981072555205174e+03
4.160994564941332101e+03
4.167981072555205174e+03
4.177013486984677911e+03
4.182024709005513614e+03
4.188011247443762841e+03
4.191010948531668873e+03
4.191010948531668873e+03
4.185978180331638214e+03
4.179997448654165055e+03
4.178984555344412001e+03
4.178984555344412001e+03
4.178984555344412001e+03
4.186994467090046783e+03
4.199013263279298371e+03
4.206020152750144916e+03
4.204023504657308877e+03
4.201005153978307135e+03
4.189992711277061062e+03
4.177013486984677911e+03
4.167981072555205174e+03
4.157984899435315128e+03
4.158987637397507569e+03
4.165014236322960642e+03
4.172014260249554354e+03
4.178984555344412001e+03
4.158987637397507569e+03
4.133020521940944491e+03
4.129010307719448065e+03
4.130988401412001622e+03
4.130988401412001622e+03
4.131978159165710167e+03
4.133020521940944491e+03
4.129010307719448065e+03
4.118009299987432314e+03
4.125007868068231801e+03
4.136986301369863213e+03
4.149980369061640886e+03
4.156982644879732106e+03
4.152978453738910503e+03
4.146986609967853838e+03
4.146986609967853838e+03
4.143997167102983440e+03
4.139024328625925591e+03
4.135002460785180119e+03
4.135002460785180119e+03
4.136986301369863213e+03
4.136986301369863213e+03
4.135994143188932867e+03
4.130988401412001622e+03
4.131978159165710167e+03
4.135002460785180119e+03
4.136986301369863213e+03
4.139024328625925591e+03
4.147984049623393730e+03
4.157984899435315128e+03
4.147984049623393730e+03
4.130988401412001622e+03
4.130988401412001622e+03
4.143997167102983440e+03
4.149980369061640886e+03
4.153978778159505964e+03
4.165014236322960642e+03
4.173023777078743478e+03
4.179997448654165055e+03
4.182024709005513614e+03
4.188011247443762841e+03
4.186994467090046783e+03
4.174991080984659675e+03
4.167981072555205174e+03
4.165014236322960642e+03
4.154979584590804734e+03
4.149980369061640886e+03
4.142006598490690521e+03
4.143001643697054533e+03
4.135994143188932867e+03
4.121998163360295621e+03
4.113976496584973574e+03
4.119976864658250634e+03
4.133020521940944491e+03
4.150979249537612304e+03
4.161998755223615262e+03
4.164008590563088546e+03
4.168988638243189598e+03
4.177013486984677911e+03
4.184000510757837219e+03
4.184000510757837219e+03
4.177013486984677911e+03
4.182985676717645219e+03
4.188011247443762841e+03
4.177013486984677911e+03
4.176002039125724878e+03
4.182985676717645219e+03
4.186994467090046783e+03
4.201005153978307135e+03
4.212996297058218261e+03
4.220974120496206524e+03
4.234009561958909217e+03
4.249990272247369830e+03
4.262983971690257931e+03
4.274997390669032939e+03
4.287976340033500492e+03
4.303011201722938495e+03
4.312014738781418600e+03
4.317014044425706743e+03
4.309972904006524004e+03
4.303972048547259874e+03
4.299002886381526878e+03
4.300977882785325164e+03
4.288986622686457849e+03
4.267981347852137333e+03
4.255012466237273657e+03
4.243990260076676350e+03
4.242012324581844041e+03
4.227018240924688143e+03
4.215001479308969465e+03
4.201974865350090113e+03
4.188011247443762841e+03
4.186994467090046783e+03
4.179997448654165055e+03
4.164008590563088546e+03
4.152978453738910503e+03
4.135002460785180119e+03
4.110003135779241347e+03
4.088005589240711743e+03
4.065989973693353932e+03
4.034996983018705578e+03
4.017976480975095910e+03
4.027013076393668598e+03
4.034996983018705578e+03
4.027013076393668598e+03
4.033010449616600908e+03
4.040021699997534142e+03
4.034003471752003406e+03
4.030976281862021551e+03
4.034003471752003406e+03
4.034996983018705578e+03
4.042015148150889218e+03
4.053014373005467405e+03
4.057983578337275503e+03
4.063015363249717666e+03
4.062008008231370695e+03
4.056024558710667861e+03
4.045009011678147090e+03
4.029984749348157493e+03
4.026023492406743117e+03
4.012023704574395651e+03
3.993005203446217365e+03
3.983006551837310781e+03
3.973009675776608219e+03
3.964981062668651703e+03
3.969015346972395037e+03
3.975998640974615682e+03
3.977977686321642523e+03
3.986980592565553252e+03
3.993005203446217365e+03
3.995001219214825596e+03
3.998023377827667900e+03
3.993005203446217365e+03
3.986980592565553252e+03
3.977977686321642523e+03
3.968006006442394209e+03
3.956984832383344838e+03
3.959997582935524861e+03
3.957988573085146072e+03
3.962008633302298222e+03
3.964981062668651703e+03
3.964021727295822984e+03
3.961002852860113308e+03
3.961002852860113308e+03
3.953976662523681171e+03
3.945977191440166280e+03
3.939004159353737577e+03
3.928991102904146373e+03
3.924003640544165137e+03
3.917014333018541038e+03
3.910983266095342969e+03
3.914019852598635680e+03
3.921984032939543340e+03
3.931017935336812570e+03
3.932999651915066806e+03
3.924003640544165137e+03
3.903017164365775898e+03
3.894018800432576427e+03
3.881012448329365725e+03
3.873992102338559107e+03
3.865993369279233775e+03
3.843005254269093257e+03
3.825016050895932040e+03
3.820021684134441784e+03
3.831994292998397668e+03
3.840978091408877845e+03
3.853989014478775516e+03
3.859981858662489230e+03
3.855984560528142993e+03
3.849009174096392599e+03
3.844989439098802904e+03
3.848014749920730992e+03
3.847020839448194693e+03
3.839987812166739332e+03
3.831994292998397668e+03
3.826981698415108895e+03
3.825016050895932040e+03
3.823007817057519787e+03
3.818018689846426241e+03
3.818997668997668825e+03
3.829978726885943161e+03
3.844989439098802904e+03
3.861983617184277136e+03
3.885015769130444824e+03
3.899997619557713733e+03
3.905994826496918904e+03
3.905994826496918904e+03
3.894990847062739704e+03
3.873992102338559107e+03
3.854986529253285426e+03
3.826981698415108895e+03
3.798015624637781912e+03
3.771003084288542141e+03
3.745998719590269047e+03
3.720985691573927397e+03
3.713984539704848885e+03
3.719000760439011174e+03
3.725004263059171080e+03
3.725004263059171080e+03
3.713984539704848885e+03
3.708981832588148791e+03
3.708016476552598306e+03
3.700980392156862763e+03
3.694012603857817339e+03
3.696012633241215553e+03
3.704997738579828365e+03
3.708981832588148791e+03
3.708981832588148791e+03
3.712007068979190080e+03
3.708981832588148791e+03
3.708016476552598306e+03
3.706003438291711973e+03
3.704997738579828365e+03
3.704997738579828365e+03
3.701983911785972396e+03
3.704997738579828365e+03
3.704997738579828365e+03
3.699016741361209370e+03
3.696012633241215553e+03
3.692014737862108632e+03
3.680982284282777528e+03
3.684003417880914185e+03
3.690019031745853226e+03
3.686988027725267784e+03
3.675985550494738618e+03
3.670015568473281746e+03
3.665991653707163550e+03
3.668002507500112188e+03
3.668988220540153179e+03
3.665991653707163550e+03
3.662999977642140493e+03
3.668988220540153179e+03
3.671989690144001543e+03
3.671989690144001543e+03
3.677016821339198486e+03
3.686988027725267784e+03
3.692014737862108632e+03
3.701983911785972396e+03
3.713016578091536758e+03
3.730007854565323669e+03
3.738007506359871513e+03
3.752992245931118305e+03
3.767014623379012392e+03
3.764980294377865903e+03
3.756994129517519468e+03
3.738988543520927578e+03
3.717017945867459275e+03
3.702987975770725825e+03
3.683009621436920952e+03
3.662999977642140493e+03
3.640980054447469684e+03
3.617984475581613879e+03
3.587994393587665854e+03
3.556990881458966669e+03
3.553018227557116916e+03
3.558999869661554840e+03
3.570984862520297611e+03
3.597014106152917066e+03
3.620983070326658435e+03
3.637019524269366229e+03
3.637019524269366229e+03
3.631980314349686068e+03
3.630008751814062634e+03
3.631980314349686068e+03
3.640009331363379260e+03
3.640009331363379260e+03
3.621983706766003252e+03
3.595987752548808658e+03
3.585991792065663958e+03
3.571996991268137208e+03
3.560005215010538450e+03
3.555987237644607376e+03
3.554984160048604735e+03
3.543987540288563650e+03
3.527012044820942265e+03
3.517017828200971962e+03
3.515998884048329273e+03
3.515998884048329273e+03
3.520002578205569080e+03
3.517017828200971962e+03
3.508995502248875709e+03
3.510010390667680895e+03
3.522992398585082810e+03
3.536986863267884019e+03
3.553018227557116916e+03
3.560005215010538450e+03
3.561011128499391816e+03
3.566010425849140574e+03
3.570012202562538278e+03
3.576988155668358559e+03
3.576988155668358559e+03
3.578980710837319748e+03
3.578003690802476740e+03
3.561011128499391816e+03
3.544984420979747483e+03
3.531002823336709753e+03
3.525987302270526470e+03
3.515998884048329273e+03
3.512004287245444630e+03
3.512983253639813483e+03
3.508018756825043056e+03
3.505016793958453945e+03
3.510010390667680895e+03
3.525987302270526470e+03
3.539011534972134086e+03
3.541000259358519543e+03
3.544984420979747483e+03
3.549015997487192635e+03
3.541000259358519543e+03
3.538018010236033206e+03
3.536986863267884019e+03
3.534011367680841886e+03
3.532982554503698339e+03
3.527012044820942265e+03
3.520986009327114971e+03
3.520002578205569080e+03
3.520002578205569080e+03
3.517017828200971962e+03
3.512004287245444630e+03
3.512004287245444630e+03
3.510010390667680895e+03
3.501009690895687072e+03
3.491013306911283507e+03
3.481998639802771777e+03
3.481998639802771777e+03
3.481998639802771777e+03
3.477010579484077880e+03
3.471006970191309392e+03
3.464987416196096092e+03
3.466013666462163656e+03
3.477010579484077880e+03
3.482997969748184914e+03
3.481998639802771777e+03
3.479004087699740012e+03
3.481998639802771777e+03
3.482997969748184914e+03
3.479004087699740012e+03
3.477010579484077880e+03
3.482997969748184914e+03
3.488003236039258354e+03
3.488003236039258354e+03
3.490009372869802519e+03
3.487001032255318023e+03
3.485999404229967240e+03
3.493991320203452688e+03
3.512004287245444630e+03
3.530013789537188131e+03
3.552016824030612952e+03
3.562985918555972148e+03
3.555987237644607376e+03
3.548016848396911428e+03
3.539011534972134086e+03
3.524015400830268391e+03
3.505016793958453945e+03
3.483997873471557796e+03
3.471006970191309392e+03
3.464987416196096092e+03
3.460998151571164726e+03
3.451010542501764121e+03
3.437001762188470366e+03
3.431997905210788304e+03
3.429016932124992309e+03
3.425002613149367335e+03
3.425002613149367335e+03
3.420997682236745732e+03
3.417002106492585881e+03
3.418000125174722598e+03
3.415007816571130661e+03
3.405991434867572934e+03
3.399983398011911959e+03
3.399983398011911959e+03
3.414011544312238584e+03
3.426005311474038535e+03
3.431997905210788304e+03
3.428012470445462441e+03
3.424000501577880186e+03
3.419997912535226078e+03
3.415007816571130661e+03
3.405991434867572934e+03
3.384985692296567322e+03
3.367003021023860128e+03
3.370015735722146019e+03
3.376996805111821232e+03
3.378006412305027425e+03
3.384006857449730887e+03
3.389011852801853365e+03
3.387995657343742096e+03
3.393012467381850001e+03
3.396001533885394110e+03
3.401995494045703254e+03
3.408010650358305611e+03
3.410990704017155622e+03
3.409996773891415614e+03
3.401995494045703254e+03
3.396987321037954189e+03
3.396987321037954189e+03
3.395016318706936545e+03
3.378006412305027425e+03
3.372999125019301118e+03
3.379992573031853681e+03
3.379992573031853681e+03
3.378006412305027425e+03
3.370015735722146019e+03
3.363995688106359921e+03
3.361993782255830411e+03
3.362994437260094401e+03
3.361993782255830411e+03
3.359994257647070754e+03
3.356002335180310638e+03
3.356002335180310638e+03
3.358995386981035153e+03
3.357997110033921672e+03
3.351985596497330334e+03
3.363995688106359921e+03
3.369010898622249442e+03
3.376996805111821232e+03
3.381003972553268341e+03
3.376996805111821232e+03
3.365999979454939421e+03
3.348012669868192006e+03
3.332994273275625346e+03
3.336999582454961001e+03
3.339992864787727740e+03
3.334011660443015899e+03
3.337985412167393406e+03
3.345005002143775982e+03
3.350991481136803031e+03
3.355005836217311753e+03
3.356002335180310638e+03
3.365999979454939421e+03
3.369010898622249442e+03
3.363995688106359921e+03
3.356002335180310638e+03
3.353014612582374866e+03
3.349005018346092129e+03
3.345995568217790606e+03
3.345995568217790606e+03
3.345995568217790606e+03
3.342002733410847668e+03
3.341014529696661157e+03
3.349005018346092129e+03
3.355005836217311753e+03
3.357997110033921672e+03
3.363995688106359921e+03
3.381003972553268341e+03
3.384006857449730887e+03
3.381003972553268341e+03
3.387995657343742096e+03
3.396987321037954189e+03
3.395016318706936545e+03
3.384006857449730887e+03
3.378006412305027425e+03
3.374006342930103983e+03
3.361993782255830411e+03
3.344015022400930775e+03
3.313010596133624858e+03
3.285999378240420356e+03
3.271008445305169062e+03
3.268007101111044449e+03
3.268007101111044449e+03
3.268985194939941721e+03
3.274997001559188902e+03
3.273001508295625626e+03
3.276012037472130487e+03
3.273001508295625626e+03
3.255991891569617565e+03
3.239990903068236548e+03
3.242010487780746189e+03
3.250984710936492320e+03
3.261014520158039886e+03
3.268007101111044449e+03
3.289000863228474373e+03
3.303990965373988729e+03
3.313010596133624858e+03
3.313010596133624858e+03
3.318983854303830867e+03
3.330995222120565359e+03
3.336999582454961001e+03
3.339992864787727740e+03
3.344015022400930775e+03
3.345005002143775982e+03
3.341014529696661157e+03
3.334011660443015899e+03
3.322012247049758571e+03
3.307993619641811620e+03
3.299997985779604278e+03
3.297009579006681179e+03
3.291015919248731734e+03
3.289000863228474373e+03
3.283003366463609837e+03
3.271988336795015130e+03
3.265011259690308634e+03
3.266997018854003727e+03
3.268985194939941721e+03
3.276012037472130487e+03
3.285999378240420356e+03
3.300995325596389648e+03
3.308995798998222654e+03
3.306992047151911265e+03
3.303990965373988729e+03
3.301993268436221115e+03
3.297009579006681179e+03
3.298005113030174925e+03
3.312005983787171317e+03
3.324000527506416347e+03
3.336999582454961001e+03
3.359994257647070754e+03
3.387995657343742096e+03
3.415007816571130661e+03
3.439996640525757812e+03
3.449993156237826042e+03
3.453993485616705129e+03
3.460998151571164726e+03
3.453993485616705129e+03
3.442996742671009997e+03
3.429016932124992309e+03
3.404009972989819289e+03
3.381003972553268341e+03
3.350991481136803031e+03
3.315994535242624806e+03
3.283990458818577281e+03
3.266997018854003727e+03
3.261014520158039886e+03
3.261988432170909164e+03
3.271008445305169062e+03
3.274997001559188902e+03
3.271988336795015130e+03
3.278995296707695161e+03
3.289000863228474373e+03
3.293000351741118720e+03
3.296014645824531726e+03
3.301993268436221115e+03
3.308995798998222654e+03
3.312005983787171317e+03
3.318009214723304922e+03
3.322012247049758571e+03
3.324000527506416347e+03
3.322989240114799486e+03
3.315994535242624806e+03
3.318009214723304922e+03
3.322989240114799486e+03
3.334995725277856764e+03
3.344015022400930775e+03
3.356002335180310638e+03
3.374006342930103983e+03
3.376996805111821232e+03
3.369010898622249442e+03
3.370015735722146019e+03
3.358995386981035153e+03
3.344015022400930775e+03
3.330013516397524199e+03
3.314988112701705177e+03
3.291015919248731734e+03
3.276012037472130487e+03
3.274997001559188902e+03
3.264003028220223314e+03
3.257999085250661210e+03
3.268985194939941721e+03
3.278995296707695161e+03
3.278995296707695161e+03
3.273001508295625626e+03
3.278995296707695161e+03
3.293993465694898077e+03
3.307993619641811620e+03
3.303990965373988729e+03
3.291015919248731734e+03
3.273001508295625626e+03
3.252985733999145850e+03
3.238998062551895600e+03
3.229007558362978671e+03
3.218003614079195813e+03
3.199996093635556008e+03
3.195003754009965633e+03
3.199996093635556008e+03
3.206007533877990682e+03
3.211002881053642795e+03
3.209996277356531209e+03
3.198996377978892724e+03
3.190990008375046273e+03
3.196000975371860477e+03
3.202998993167222125e+03
3.211002881053642795e+03
3.209996277356531209e+03
3.209996277356531209e+03
3.218003614079195813e+03
3.221008758564420987e+03
3.221008758564420987e+03
3.212986478138513576e+03
3.197997286772528241e+03
3.197997286772528241e+03
3.208990304573499088e+03
3.208990304573499088e+03
3.205004059195790433e+03
3.205004059195790433e+03
3.212986478138513576e+03
3.223987799478525631e+03
3.231013469540694132e+03
3.238998062551895600e+03
3.243005176219083751e+03
3.243005176219083751e+03
3.242010487780746189e+03
3.250984710936492320e+03
3.261988432170909164e+03
3.268985194939941721e+03
3.283003366463609837e+03
3.289000863228474373e+03
3.281983994230711232e+03
3.273001508295625626e+03
3.278011204481792447e+03
3.278011204481792447e+03
3.273001508295625626e+03
3.271988336795015130e+03
3.252985733999145850e+03
3.229007558362978671e+03
3.207011637125267953e+03
3.184013370776690408e+03
3.166995283383592778e+03
3.152006618184616400e+03
3.148009376681269714e+03
3.144987906476753778e+03
3.147011649907319224e+03
3.162013760892431492e+03
3.177991581479253909e+03
3.189002433090024169e+03
3.194007154763181006e+03
3.197997286772528241e+03
3.208990304573499088e+03
3.223987799478525631e+03
3.234011054086064178e+03
3.225003198724447429e+03
3.213994958362350644e+03
3.205004059195790433e+03
3.198996377978892724e+03
3.205004059195790433e+03
3.216013819231108755e+03
3.213994958362350644e+03
3.198996377978892724e+03
3.202998993167222125e+03
3.223987799478525631e+03
3.239990903068236548e+03
3.249985122294737266e+03
3.255991891569617565e+03
3.260008755173511872e+03
3.260008755173511872e+03
3.261988432170909164e+03
3.274997001559188902e+03
3.289000863228474373e+03
3.301993268436221115e+03
3.322989240114799486e+03
3.349005018346092129e+03
3.375014162555233725e+03
3.399983398011911959e+03
3.420997682236745732e+03
3.458988704739786499e+03
3.512983253639813483e+03
3.566010425849140574e+03
3.610012449458503397e+03
3.651000579400098104e+03
3.684997750787224504e+03
3.704997738579828365e+03
3.736004378263744911e+03
3.778003251432590332e+03
3.814018996182139745e+03
3.844989439098802904e+03
3.871017283542239966e+03
3.905017280419497183e+03
3.945977191440166280e+03
3.991011181213611962e+03
4.016006667402041785e+03
3.974985745999782011e+03
3.865993369279233775e+03
3.734982332155477252e+03
3.587994393587665854e+03
3.426005311474038535e+03
3.289000863228474373e+03
3.171010229065255317e+03
3.062994849360143235e+03
2.998005416483676981e+03
2.977004915188021641e+03
2.963006501668369765e+03
2.946990682447746167e+03
2.928998578720133082e+03
2.917991326262545044e+03
2.933009899926601065e+03
2.969989213882367949e+03
3.007995740501041837e+03
3.045005529277290862e+03
3.069997095556201202e+03
3.087003627113853781e+03
3.106995884773662510e+03
3.122004668667524129e+03
3.132001529344293886e+03
3.137008989689142709e+03
3.141008435582822131e+03
3.147011649907319224e+03
3.144987906476753778e+03
3.138000383068377687e+03
3.137008989689142709e+03
3.135988209059500150e+03
3.138000383068377687e+03
3.139985050884489283e+03
3.151006356441546814e+03
3.165006906277468261e+03
3.169997871640578069e+03
3.177005565359033426e+03
3.182992695057507262e+03
3.189002433090024169e+03
3.196000975371860477e+03
3.201997400642998855e+03
3.208990304573499088e+03
3.202998993167222125e+03
3.196000975371860477e+03
3.184013370776690408e+03
3.165006906277468261e+03
3.148009376681269714e+03
3.142996911389491288e+03
3.143992093723913513e+03
3.147011649907319224e+03
3.143992093723913513e+03
3.142996911389491288e+03
3.141008435582822131e+03
3.132989759721571318e+03
3.129010695187165766e+03
3.125995745127407645e+03
3.129010695187165766e+03
3.134008588945319843e+03
3.134008588945319843e+03
3.129010695187165766e+03
3.125995745127407645e+03
3.132989759721571318e+03
3.157991114023843693e+03
3.190990008375046273e+03
3.211002881053642795e+03
3.221008758564420987e+03
3.225003198724447429e+03
3.206007533877990682e+03
3.177005565359033426e+03
3.154009048031572092e+03
3.143992093723913513e+03
3.137008989689142709e+03
3.132989759721571318e+03
3.137008989689142709e+03
3.135988209059500150e+03
3.127010029870117705e+03
3.119003198294243248e+03
3.111007728386153303e+03
3.093999339030262945e+03
3.087003627113853781e+03
3.090002074649667065e+03
3.097011398650309275e+03
3.100000000000000000e+03
3.092014003566946030e+03
3.080995185798104558e+03
3.082009462268498737e+03
3.092014003566946030e+03
3.103993785760297214e+03
3.127010029870117705e+03
3.148009376681269714e+03
3.154009048031572092e+03
3.160001157262302968e+03
3.171010229065255317e+03
3.168986160407740954e+03
3.168986160407740954e+03
3.175989376859776712e+03
3.166995283383592778e+03
3.147011649907319224e+03
3.125995745127407645e+03
3.100997482633959862e+03
3.075991551279042596e+03
3.054002162323379252e+03
3.034993145863435984e+03
3.036005485138240601e+03
3.052010953596244235e+03
3.065000420926599872e+03
3.069997095556201202e+03
3.075991551279042596e+03
3.084998211158604590e+03
3.095987225639426470e+03
3.102994374893464283e+03
3.115000332728085141e+03
3.125011921338241791e+03
3.122986599569203463e+03
3.119003198294243248e+03
3.125995745127407645e+03
3.125995745127407645e+03
3.117994100294984946e+03
3.107997875327237580e+03
3.103993785760297214e+03
3.093999339030262945e+03
3.084998211158604590e+03
3.078014184397163262e+03
3.078014184397163262e+03
3.075991551279042596e+03
3.071004142533130562e+03
3.075991551279042596e+03
3.080995185798104558e+03
3.082995399076051854e+03
3.082009462268498737e+03
3.080995185798104558e+03
3.082995399076051854e+03
3.090002074649667065e+03
3.090002074649667065e+03
3.084998211158604590e+03
3.084998211158604590e+03
3.082009462268498737e+03
3.084998211158604590e+03
3.078014184397163262e+03
3.065000420926599872e+03
3.067008620608964975e+03
3.063997306951431710e+03
3.063997306951431710e+03
3.075991551279042596e+03
3.092014003566946030e+03
3.095987225639426470e+03
3.102994374893464283e+03
3.112012308627436141e+03
3.122004668667524129e+03
3.122986599569203463e+03
3.122004668667524129e+03
3.122986599569203463e+03
3.122004668667524129e+03
3.117994100294984946e+03
3.111007728386153303e+03
3.090002074649667065e+03
3.078014184397163262e+03
3.075991551279042596e+03
3.078997566269815252e+03
3.078997566269815252e+03
3.078997566269815252e+03
3.087003627113853781e+03
3.093999339030262945e+03
3.097011398650309275e+03
3.106995884773662510e+03
3.125995745127407645e+03
3.143992093723913513e+03
3.160001157262302968e+03
3.175989376859776712e+03
3.213994958362350644e+03
3.212986478138513576e+03
3.199996093635556008e+03
3.197997286772528241e+03
3.158995815899581430e+03
3.157991114023843693e+03
3.129010695187165766e+03
3.109000512363132657e+03
3.074000412781207160e+03
3.072011850407357997e+03
3.075991551279042596e+03
3.082009462268498737e+03
3.087003627113853781e+03
3.100000000000000000e+03
3.111007728386153303e+03
3.119003198294243248e+03
3.119003198294243248e+03
3.115000332728085141e+03
3.107997875327237580e+03
3.102994374893464283e+03
3.098006958626427604e+03
3.109000512363132657e+03
3.107997875327237580e+03
3.106995884773662510e+03
3.107997875327237580e+03
3.107997875327237580e+03
3.120993627903875222e+03
3.120993627903875222e+03
3.119003198294243248e+03
3.129010695187165766e+03
3.129010695187165766e+03
3.134008588945319843e+03
3.134008588945319843e+03
3.148009376681269714e+03
3.149007736293306607e+03
3.160001157262302968e+03
3.158995815899581430e+03
3.169997871640578069e+03
3.184013370776690408e+03
3.185003742260324998e+03
3.184013370776690408e+03
3.186986334678791991e+03
3.171010229065255317e+03
3.157991114023843693e+03
3.156014023732470378e+03
3.156014023732470378e+03
3.162013760892431492e+03
3.162990491819103227e+03
3.148009376681269714e+03
3.141008435582822131e+03
3.149007736293306607e+03
3.157991114023843693e+03
3.162990491819103227e+03
3.165985487502053275e+03
3.166995283383592778e+03
3.177005565359033426e+03
3.182992695057507262e+03
3.184013370776690408e+03
3.195003754009965633e+03
3.205004059195790433e+03
3.205004059195790433e+03
3.211002881053642795e+03
3.219995872682068693e+03
3.223987799478525631e+03
3.221990599618477972e+03
3.223987799478525631e+03
3.218003614079195813e+03
3.207011637125267953e+03
3.198996377978892724e+03
3.186986334678791991e+03
3.179996312147591652e+03
3.182992695057507262e+03
3.188009573660757724e+03
3.184013370776690408e+03
3.182992695057507262e+03
3.188009573660757724e+03
3.202998993167222125e+03
3.221990599618477972e+03
3.221008758564420987e+03
3.248986148156227500e+03
3.246990041123718129e+03
3.246990041123718129e+03
3.249985122294737266e+03
3.265011259690308634e+03
3.281983994230711232e+03
3.278011204481792447e+03
3.271988336795015130e+03
3.276012037472130487e+03
3.265011259690308634e+03
3.255991891569617565e+03
3.244996385315468160e+03
3.231013469540694132e+03
3.219995872682068693e+03
3.202998993167222125e+03
3.196000975371860477e+03
3.199996093635556008e+03
3.199996093635556008e+03
3.198996377978892724e+03
3.197997286772528241e+03
3.196000975371860477e+03
3.202998993167222125e+03
3.206007533877990682e+03
3.206007533877990682e+03
3.201997400642998855e+03
3.190990008375046273e+03
3.182992695057507262e+03
3.177005565359033426e+03
3.175989376859776712e+03
3.181015066790928813e+03
3.181015066790928813e+03
3.181015066790928813e+03
3.186986334678791991e+03
3.189002433090024169e+03
3.188009573660757724e+03
3.177991581479253909e+03
3.158995815899581430e+03
3.152006618184616400e+03
3.149007736293306607e+03
3.132989759721571318e+03
3.116007493557252474e+03
3.103993785760297214e+03
3.087003627113853781e+03
3.072011850407357997e+03
3.056993851866364366e+03
3.049000632746492101e+03
3.052010953596244235e+03
3.054002162323379252e+03
3.049993949717498253e+03
3.046987604496973290e+03
3.060991900753874233e+03
3.067008620608964975e+03
3.062994849360143235e+03
3.068013707608472032e+03
3.069997095556201202e+03
3.059991408453334770e+03
3.062994849360143235e+03
3.071004142533130562e+03
3.078014184397163262e+03
3.069997095556201202e+03
3.065000420926599872e+03
3.069997095556201202e+03
3.072011850407357997e+03
3.072011850407357997e+03
3.078014184397163262e+03
3.078997566269815252e+03
3.075991551279042596e+03
3.068013707608472032e+03
3.065000420926599872e+03
3.072011850407357997e+03
3.075010088307885326e+03
3.074000412781207160e+03
3.072011850407357997e+03
3.075991551279042596e+03
3.080995185798104558e+03
3.075991551279042596e+03
3.068013707608472032e+03
3.052010953596244235e+03
3.038990187531301672e+03
3.031988229959933506e+03
3.024990537384255731e+03
3.023009078160750050e+03
3.016996906305244920e+03
3.007995740501041837e+03
2.996004352238751380e+03
2.982994373941699905e+03
2.986991677225863441e+03
3.001988071570576267e+03
3.018998304709958120e+03
3.024013437188526950e+03
3.021002360230122576e+03
3.024013437188526950e+03
3.020000000000000000e+03
3.016996906305244920e+03
3.020000000000000000e+03
3.013002059732235011e+03
3.013002059732235011e+03
3.027002558915094141e+03
3.031006604628790228e+03
3.028009573711106441e+03
3.024013437188526950e+03
3.027002558915094141e+03
3.028009573711106441e+03
3.027002558915094141e+03
3.027002558915094141e+03
3.021002360230122576e+03
3.018998304709958120e+03
3.015997201870328809e+03
3.012005000551531339e+03
3.008990146652341537e+03
3.013002059732235011e+03
3.024013437188526950e+03
3.038004023846388918e+03
3.049993949717498253e+03
3.056993851866364366e+03
3.055995970976105582e+03
3.059991408453334770e+03
3.058991569965551662e+03
3.049993949717498253e+03
3.042997771173848378e+03
3.040992659000844469e+03
3.049993949717498253e+03
3.059991408453334770e+03
3.069997095556201202e+03
3.080995185798104558e+03
3.084998211158604590e+03
3.085986061405160854e+03
3.090002074649667065e+03
3.092014003566946030e+03
3.082995399076051854e+03
3.075010088307885326e+03
3.068013707608472032e+03
3.054002162323379252e+03
3.042009005245323351e+03
3.023009078160750050e+03
2.998993227164561631e+03
2.979007755038956930e+03
2.956990217665956607e+03
2.937005897854185150e+03
2.928998578720133082e+03
2.934007879656160640e+03
2.946990682447746167e+03
2.954990215264188009e+03
2.960998355352333874e+03
2.966010409594930934e+03
2.974005699867487237e+03
2.982994373941699905e+03
2.985005283678898195e+03
2.992010226909555968e+03
2.998993227164561631e+03
3.015997201870328809e+03
3.036005485138240601e+03
3.045996244445683715e+03
3.055995970976105582e+03
3.071004142533130562e+03
3.090002074649667065e+03
3.092014003566946030e+03
3.095987225639426470e+03
3.092014003566946030e+03
3.080995185798104558e+03
3.053006233287057512e+03
3.018998304709958120e+03
2.992010226909555968e+03
2.960998355352333874e+03
2.943998706211084937e+03
2.943998706211084937e+03
2.956990217665956607e+03
2.973007303906002107e+03
2.967998478274653280e+03
2.960998355352333874e+03
2.960998355352333874e+03
2.967998478274653280e+03
2.974005699867487237e+03
2.985005283678898195e+03
2.990999707901270540e+03
2.987999489339971660e+03
2.982994373941699905e+03
2.969989213882367949e+03
2.967998478274653280e+03
2.963006501668369765e+03
2.958004585913661685e+03
2.958992929192591419e+03
2.964990544098884584e+03
2.961988700564971623e+03
2.952008576653843647e+03
2.950998315876689958e+03
2.947998200629779603e+03
2.939007982778724909e+03
2.946990682447746167e+03
2.949988746342561171e+03
2.936005877925522782e+03
2.924998214668285073e+03
2.933009899926601065e+03
2.941012799109626940e+03
2.941012799109626940e+03
2.949988746342561171e+03
2.960998355352333874e+03
2.972009578057541148e+03
2.987999489339971660e+03
3.004988903358339030e+03
3.006008898674373086e+03
3.000998287341899868e+03
2.996004352238751380e+03
2.998993227164561631e+03
3.000998287341899868e+03
2.989989871246201801e+03
2.972009578057541148e+03
2.960998355352333874e+03
2.958004585913661685e+03
2.960998355352333874e+03
2.968993512377224306e+03
2.964990544098884584e+03
2.950998315876689958e+03
2.942993919471164645e+03
2.936005877925522782e+03
2.933009899926601065e+03
2.943998706211084937e+03
2.963006501668369765e+03
2.980010185892539084e+03
2.996004352238751380e+03
3.004988903358339030e+03
3.010012860554841154e+03
3.023009078160750050e+03
3.038004023846388918e+03
3.045005529277290862e+03
3.042997771173848378e+03
3.045996244445683715e+03
3.038004023846388918e+03
3.029997595753731275e+03
3.034009574162723766e+03
3.024990537384255731e+03
3.013999779241325996e+03
3.007995740501041837e+03
3.006008898674373086e+03
3.003006030390234173e+03
3.001988071570576267e+03
3.001988071570576267e+03
2.994991133941465705e+03
2.986991677225863441e+03
2.983999490023586532e+03
2.992010226909555968e+03
3.006008898674373086e+03
3.007995740501041837e+03
3.004988903358339030e+03
3.000998287341899868e+03
3.004988903358339030e+03
3.010012860554841154e+03
3.012005000551531339e+03
3.021002360230122576e+03
3.029997595753731275e+03
3.029997595753731275e+03
3.031006604628790228e+03
3.028009573711106441e+03
3.021002360230122576e+03
3.013999779241325996e+03
3.003006030390234173e+03
2.983999490023586532e+03
2.961988700564971623e+03
2.954004543651509266e+03
2.950998315876689958e+03
2.939007982778724909e+03
2.919005113403531141e+03
2.910009680198222213e+03
2.921008762937143729e+03
2.940010049169148715e+03
2.958992929192591419e+03
2.980010185892539084e+03
2.990999707901270540e+03
2.986991677225863441e+03
2.981013291605637278e+03
2.981013291605637278e+03
2.986991677225863441e+03
2.992010226909555968e+03
3.000998287341899868e+03
3.006008898674373086e+03
3.007995740501041837e+03
3.007995740501041837e+03
3.000998287341899868e+03
2.994991133941465705e+03
3.003006030390234173e+03
3.004988903358339030e+03
3.003006030390234173e+03
2.998005416483676981e+03
2.983999490023586532e+03
2.967998478274653280e+03
2.950998315876689958e+03
2.937005897854185150e+03
2.932012598876123320e+03
2.925990748843605161e+03
2.913995037662187315e+03
2.902997173814818325e+03
2.906009436304941573e+03
2.910992066664889990e+03
2.913995037662187315e+03
2.924998214668285073e+03
2.933009899926601065e+03
2.936005877925522782e+03
2.942993919471164645e+03
2.949988746342561171e+03
2.952008576653843647e+03
2.952008576653843647e+03
2.952008576653843647e+03
2.947998200629779603e+03
2.947998200629779603e+03
2.958992929192591419e+03
2.963006501668369765e+03
2.952008576653843647e+03
2.942993919471164645e+03
2.942993919471164645e+03
2.937005897854185150e+03
2.928998578720133082e+03
2.932012598876123320e+03
2.937005897854185150e+03
2.932012598876123320e+03
2.936005877925522782e+03
2.943998706211084937e+03
2.954004543651509266e+03
2.958004585913661685e+03
2.961988700564971623e+03
2.967998478274653280e+03
2.979007755038956930e+03
2.981013291605637278e+03
2.983999490023586532e+03
2.987999489339971660e+03
2.994005957493466667e+03
2.990999707901270540e+03
2.989989871246201801e+03
3.003006030390234173e+03
3.008990146652341537e+03
3.000998287341899868e+03
2.998993227164561631e+03
3.003006030390234173e+03
3.010012860554841154e+03
3.013999779241325996e+03
3.010012860554841154e+03
3.006008898674373086e+03
3.001988071570576267e+03
3.001988071570576267e+03
2.994991133941465705e+03
2.983999490023586532e+03
2.976004504831795202e+03
2.969989213882367949e+03
2.972009578057541148e+03
2.980010185892539084e+03
3.000998287341899868e+03
3.003006030390234173e+03
2.996004352238751380e+03
2.994991133941465705e+03
3.006008898674373086e+03
3.013999779241325996e+03
3.013002059732235011e+03
3.004988903358339030e+03
2.986991677225863441e+03
2.972009578057541148e+03
2.961988700564971623e+03
2.960998355352333874e+03
2.961988700564971623e+03
2.976004504831795202e+03
2.987999489339971660e+03
2.994991133941465705e+03
2.998005416483676981e+03
3.004988903358339030e+03
3.004988903358339030e+03
3.010012860554841154e+03
3.016996906305244920e+03
3.013002059732235011e+03
3.004988903358339030e+03
2.996004352238751380e+03
2.998993227164561631e+03
3.003006030390234173e+03
3.015997201870328809e+03
3.021002360230122576e+03
3.020000000000000000e+03
3.012005000551531339e+03
2.994005957493466667e+03
2.990999707901270540e+03
2.992010226909555968e+03
2.985005283678898195e+03
2.973007303906002107e+03
2.967998478274653280e+03
2.968993512377224306e+03
2.979007755038956930e+03
2.985005283678898195e+03
2.994005957493466667e+03
2.998993227164561631e+03
3.001988071570576267e+03
3.018998304709958120e+03
3.042009005245323351e+03
3.068013707608472032e+03
3.093999339030262945e+03
3.111007728386153303e+03
3.106995884773662510e+03
3.097011398650309275e+03
3.087003627113853781e+03
3.075991551279042596e+03
3.060991900753874233e+03
3.031988229959933506e+03
2.998993227164561631e+03
2.966010409594930934e+03
2.939007982778724909e+03
2.917004210769956444e+03
2.902997173814818325e+03
2.907995278623346167e+03
2.925990748843605161e+03
2.946990682447746167e+03
2.958992929192591419e+03
2.963006501668369765e+03
2.972009578057541148e+03
2.985005283678898195e+03
2.994991133941465705e+03
2.996004352238751380e+03
2.992010226909555968e+03
2.987999489339971660e+03
2.979007755038956930e+03
2.963006501668369765e+03
2.952008576653843647e+03
2.937005897854185150e+03
2.921008762937143729e+03
2.913995037662187315e+03
2.902997173814818325e+03
2.898990524555645152e+03
2.902997173814818325e+03
2.910992066664889990e+03
2.921008762937143729e+03
2.929993830085932132e+03
2.937005897854185150e+03
2.943998706211084937e+03
2.950998315876689958e+03
2.952008576653843647e+03
2.950998315876689958e+03
2.949988746342561171e+03
2.946010339402112550e+03
2.950998315876689958e+03
2.950998315876689958e+03
2.949988746342561171e+03
2.952008576653843647e+03
2.963006501668369765e+03
2.976004504831795202e+03
2.992010226909555968e+03
3.000998287341899868e+03
3.000998287341899868e+03
3.007995740501041837e+03
3.010012860554841154e+03
3.001988071570576267e+03
2.994991133941465705e+03
2.994005957493466667e+03
2.977004915188021641e+03
2.956990217665956607e+03
2.933009899926601065e+03
2.922989090195448625e+03
2.928004003252643088e+03
2.936005877925522782e+03
2.946010339402112550e+03
2.949988746342561171e+03
2.941012799109626940e+03
2.936005877925522782e+03
2.928004003252643088e+03
2.922989090195448625e+03
2.921998591034341189e+03
2.917004210769956444e+03
2.910992066664889990e+03
2.910992066664889990e+03
2.894994919821530857e+03
2.878995554149753389e+03
2.878009362950470859e+03
2.883987431458320316e+03
2.888996649620878088e+03
2.895992788079118782e+03
2.906989123298851609e+03
2.919005113403531141e+03
2.940010049169148715e+03
2.961988700564971623e+03
2.968993512377224306e+03
2.967998478274653280e+03
2.972009578057541148e+03
2.982994373941699905e+03
2.994991133941465705e+03
3.001988071570576267e+03
3.021002360230122576e+03
3.040992659000844469e+03
3.052010953596244235e+03
3.058991569965551662e+03
3.058991569965551662e+03
3.054002162323379252e+03
3.060991900753874233e+03
3.071004142533130562e+03
3.071004142533130562e+03
3.060991900753874233e+03
3.045996244445683715e+03
3.031006604628790228e+03
3.021002360230122576e+03
3.018998304709958120e+03
3.021002360230122576e+03
3.024990537384255731e+03
3.012005000551531339e+03
2.989989871246201801e+03
2.969989213882367949e+03
2.950998315876689958e+03
2.929993830085932132e+03
2.928998578720133082e+03
2.942993919471164645e+03
2.958992929192591419e+03
2.969989213882367949e+03
2.973007303906002107e+03
2.967998478274653280e+03
2.973007303906002107e+03
2.977004915188021641e+03
2.980010185892539084e+03
2.986991677225863441e+03
2.982994373941699905e+03
2.986991677225863441e+03
2.987999489339971660e+03
2.982994373941699905e+03
2.980010185892539084e+03
2.979007755038956930e+03
2.979007755038956930e+03
2.989989871246201801e+03
3.001988071570576267e+03
3.010012860554841154e+03
3.013999779241325996e+03
3.008990146652341537e+03
2.989989871246201801e+03
2.968993512377224306e+03
2.966010409594930934e+03
2.960998355352333874e+03
2.954004543651509266e+03
2.946990682447746167e+03
2.954990215264188009e+03
2.969989213882367949e+03
2.980010185892539084e+03
2.989989871246201801e+03
2.996004352238751380e+03
2.994991133941465705e+03
2.998993227164561631e+03
3.001988071570576267e+03
3.006008898674373086e+03
3.006008898674373086e+03
2.998005416483676981e+03
2.974005699867487237e+03
2.937005897854185150e+03
2.899991149659262192e+03
2.863997902281269035e+03
2.830989079347525603e+03
2.809988937389052353e+03
2.796988502018762119e+03
2.795008274050190266e+03
2.795008274050190266e+03
2.786001547447986013e+03
2.782996432818074027e+03
2.783989532532413250e+03
2.782004041364554723e+03
2.786001547447986013e+03
2.790010558223493717e+03
2.795008274050190266e+03
2.802011270640750354e+03
2.813004361113972664e+03
2.824011031629750960e+03
2.828008216387896027e+03
2.835006056411143618e+03
2.844999739524545475e+03
2.847991795085742979e+03
2.844999739524545475e+03
2.844999739524545475e+03
2.839009851235086444e+03
2.841003676215578707e+03
2.836994259690560284e+03
2.832996143936642966e+03
2.836994259690560284e+03
2.836994259690560284e+03
2.832996143936642966e+03
2.828008216387896027e+03
2.824011031629750960e+03
2.826008210577155296e+03
2.836994259690560284e+03
2.841003676215578707e+03
2.838001697587001217e+03
2.830011055068057885e+03
2.809001285897985781e+03
2.797991614649599796e+03
2.790010558223493717e+03
2.775993967993087153e+03
2.775993967993087153e+03
2.779997794123885342e+03
2.779007539712829384e+03
2.787992750725352835e+03
2.801005274270620703e+03
2.798995447051688643e+03
2.793007040692818009e+03
2.790010558223493717e+03
2.782004041364554723e+03
2.779997794123885342e+03
2.783989532532413250e+03
2.791008671061822042e+03
2.793007040692818009e+03
2.794007299021112431e+03
2.813004361113972664e+03
2.827007859749626732e+03
2.828008216387896027e+03
2.834000743809515825e+03
2.841003676215578707e+03
2.852007554986900686e+03
2.872005679676748969e+03
2.880995296083000085e+03
2.875004387042431517e+03
2.867004987312975572e+03
2.866001924254351707e+03
2.853000844572533424e+03
2.841003676215578707e+03
2.844012012429045171e+03
2.844012012429045171e+03
2.836994259690560284e+03
2.830011055068057885e+03
2.816994644039236846e+03
2.798995447051688643e+03
2.797991614649599796e+03
2.813004361113972664e+03
2.836994259690560284e+03
2.860997118658866839e+03
2.889990386396309532e+03
2.919005113403531141e+03
2.939007982778724909e+03
2.954004543651509266e+03
2.966010409594930934e+03
2.986991677225863441e+03
3.018998304709958120e+03
3.065000420926599872e+03
3.117994100294984946e+03
3.144987906476753778e+03
3.168986160407740954e+03
3.190990008375046273e+03
3.196000975371860477e+03
3.201997400642998855e+03
3.225003198724447429e+03
3.266997018854003727e+03
3.312005983787171317e+03
3.344015022400930775e+03
3.378006412305027425e+03
3.421998036635545304e+03
3.479004087699740012e+03
3.531002823336709753e+03
3.566980906141821833e+03
3.550015709472269918e+03
3.460998151571164726e+03
3.344015022400930775e+03
3.201997400642998855e+03
3.038004023846388918e+03
2.885003125632830688e+03
2.739990634511823828e+03
2.611998597028250515e+03
2.531990850925725681e+03
2.506003640424002242e+03
2.489004686775999289e+03
2.455008616168427579e+03
2.431995131111160390e+03
2.420998189811223256e+03
2.440999433832950672e+03
2.489004686775999289e+03
2.553000849260208724e+03
2.605000596255515575e+03
2.648009568295324243e+03
2.678005165255483917e+03
2.696007043006771255e+03
2.720991837107529591e+03
2.746996638246858311e+03
2.761000353898784851e+03
2.766011328431662150e+03
2.770993657505285682e+03
2.779997794123885342e+03
2.782004041364554723e+03
2.777005610454768885e+03
2.783989532532413250e+03
2.794007299021112431e+03
2.794007299021112431e+03
2.782996432818074027e+03
2.765007678936087814e+03
2.746996638246858311e+03
2.727991741179213022e+03
2.722009004967685087e+03
2.727991741179213022e+03
2.739990634511823828e+03
2.761000353898784851e+03
2.769003253475303154e+03
2.775993967993087153e+03
2.775993967993087153e+03
2.779997794123885342e+03
2.777005610454768885e+03
2.770993657505285682e+03
2.766011328431662150e+03
2.762001095798035749e+03
2.753992267608001384e+03
2.742008368200837140e+03
2.730992982280675278e+03
2.725994575797407379e+03
2.728991421670692034e+03
2.730992982280675278e+03
2.731994864013073311e+03
2.739990634511823828e+03
2.746006737844224972e+03
2.757004627681952115e+03
2.767997431955262073e+03
2.773010392336075256e+03
2.772001658108233642e+03
2.770993657505285682e+03
2.779007539712829384e+03
2.775006563402467691e+03
2.766011328431662150e+03
2.753992267608001384e+03
2.744006096488657022e+03
2.748010298643900114e+03
2.755011098405865596e+03
2.753992267608001384e+03
2.758002474601665199e+03
2.762001095798035749e+03
2.764004757526423418e+03
2.762001095798035749e+03
2.766011328431662150e+03
2.775006563402467691e+03
2.772001658108233642e+03
2.772001658108233642e+03
2.775006563402467691e+03
2.782004041364554723e+03
2.786001547447986013e+03
2.791008671061822042e+03
2.801005274270620703e+03
2.804001437642266410e+03
2.798995447051688643e+03
2.804001437642266410e+03
2.805009587727708549e+03
2.796988502018762119e+03
2.795008274050190266e+03
2.802011270640750354e+03
2.811990457065376177e+03
2.816994644039236846e+03
2.813004361113972664e+03
2.805009587727708549e+03
2.797991614649599796e+03
2.796988502018762119e+03
2.798995447051688643e+03
2.804001437642266410e+03
2.805009587727708549e+03
2.802011270640750354e+03
2.802011270640750354e+03
2.801005274270620703e+03
2.795008274050190266e+03
2.775006563402467691e+03
2.755011098405865596e+03
2.749993705571827832e+03
2.739990634511823828e+03
2.735004924628148729e+03
2.732997481108312513e+03
2.731994864013073311e+03
2.748010298643900114e+03
2.767997431955262073e+03
2.770993657505285682e+03
2.773010392336075256e+03
2.770993657505285682e+03
2.759001044087433911e+03
2.742995387461597147e+03
2.732997481108312513e+03
2.735004924628148729e+03
2.728991421670692034e+03
2.722009004967685087e+03
2.722009004967685087e+03
2.730992982280675278e+03
2.739005776094824796e+03
2.739990634511823828e+03
2.746996638246858311e+03
2.762001095798035749e+03
2.779007539712829384e+03
2.795008274050190266e+03
2.801005274270620703e+03
2.797991614649599796e+03
2.796988502018762119e+03
2.796988502018762119e+03
2.794007299021112431e+03
2.790010558223493717e+03
2.791008671061822042e+03
2.791008671061822042e+03
2.794007299021112431e+03
2.798995447051688643e+03
2.798995447051688643e+03
2.801005274270620703e+03
2.782996432818074027e+03
2.759001044087433911e+03
2.751009579460830082e+03
2.748010298643900114e+03
2.742995387461597147e+03
2.717989979760443475e+03
2.683993676433246492e+03
2.655994163897220005e+03
2.641009107761747600e+03
2.626002772902491415e+03
2.618008948545861131e+03
2.615000319223648148e+03
2.616002427029443425e+03
2.630999983941160281e+03
2.647004176461559837e+03
2.644995681409071494e+03
2.634998753548366494e+03
2.636992089104209754e+03
2.657997842257679622e+03
2.665999495553548968e+03
2.658990026860124544e+03
2.664005398417873494e+03
2.666997664026827351e+03
2.669996659142947919e+03
2.683993676433246492e+03
2.679998364208890507e+03
2.670997823552907448e+03
2.670997823552907448e+03
2.678005165255483917e+03
2.688000918778353025e+03
2.688993566176470267e+03
2.692993630573248538e+03
2.697005613445931431e+03
2.692993630573248538e+03
2.688000918778353025e+03
2.688993566176470267e+03
2.692993630573248538e+03
2.691998028261583841e+03
2.688993566176470267e+03
2.685995803003475885e+03
2.691998028261583841e+03
2.699004975124378234e+03
2.702990307279851550e+03
2.707009789747614377e+03
2.712994088327344343e+03
2.722009004967685087e+03
2.724997089300267817e+03
2.716998341625207104e+03
2.706003798827318406e+03
2.699004975124378234e+03
2.696007043006771255e+03
2.706003798827318406e+03
2.706003798827318406e+03
2.710996384455641419e+03
2.712994088327344343e+03
2.710009841949863585e+03
2.712994088327344343e+03
2.714005284387864322e+03
2.716998341625207104e+03
2.716998341625207104e+03
2.716998341625207104e+03
2.724997089300267817e+03
2.731994864013073311e+03
2.739990634511823828e+03
2.748010298643900114e+03
2.758002474601665199e+03
2.775993967993087153e+03
2.793007040692818009e+03
2.797991614649599796e+03
2.794007299021112431e+03
2.779007539712829384e+03
2.773010392336075256e+03
2.773010392336075256e+03
2.764004757526423418e+03
2.758002474601665199e+03
2.757004627681952115e+03
2.755011098405865596e+03
2.757004627681952115e+03
2.759001044087433911e+03
2.757004627681952115e+03
2.755011098405865596e+03
2.753992267608001384e+03
2.755011098405865596e+03
2.758002474601665199e+03
2.752997319845744187e+03
2.751009579460830082e+03
2.751009579460830082e+03
2.739005776094824796e+03
2.725994575797407379e+03
2.727991741179213022e+03
2.736009752676141034e+03
2.739990634511823828e+03
2.744006096488657022e+03
2.755011098405865596e+03
2.772001658108233642e+03
2.786996793426950717e+03
2.804001437642266410e+03
2.815010180324911289e+03
2.819006159881620079e+03
2.830011055068057885e+03
2.830011055068057885e+03
2.830011055068057885e+03
2.839009851235086444e+03
2.835006056411143618e+03
2.820000860622229993e+03
2.802011270640750354e+03
2.786001547447986013e+03
2.772001658108233642e+03
2.755011098405865596e+03
2.739005776094824796e+03
2.710009841949863585e+03
2.675010000571461205e+03
2.651008883351401892e+03
2.634003215434083813e+03
2.636992089104209754e+03
2.640009023743725720e+03
2.641009107761747600e+03
2.644995681409071494e+03
2.634003215434083813e+03
2.609003758201159144e+03
2.596989847273188388e+03
2.599998413038475974e+03
2.596989847273188388e+03
2.597998794836827528e+03
2.601009700106367745e+03
2.596989847273188388e+03
2.589990040627914368e+03
2.596002250021787404e+03
2.601009700106367745e+03
2.605000596255515575e+03
2.599998413038475974e+03
2.593002920066156548e+03
2.584005614831988623e+03
2.573008033043055093e+03
2.564008263169426300e+03
2.557005290840135331e+03
2.557005290840135331e+03
2.556007987768729436e+03
2.550000778222229201e+03
2.545009708737864003e+03
2.542008657739988394e+03
2.545009708737864003e+03
2.542008657739988394e+03
2.545009708737864003e+03
2.539998759728380719e+03
2.536008111015657050e+03
2.535007504371102641e+03
2.542995064104554331e+03
2.542008657739988394e+03
2.536008111015657050e+03
2.530993411244911385e+03
2.521003877638948779e+03
2.521003877638948779e+03
2.521003877638948779e+03
2.521003877638948779e+03
2.519995693235302952e+03
2.516009644178939197e+03
2.508997074993491424e+03
2.500000000000000000e+03
2.499008541793776658e+03
2.488003037205770852e+03
2.468993474689934828e+03
2.457992018483511856e+03
2.462999015311530002e+03
2.466001881467544536e+03
2.456002278587276123e+03
2.457992018483511856e+03
2.474008078825172561e+03
2.490991470404889697e+03
2.507000657985340695e+03
2.530993411244911385e+03
2.545998445998446186e+03
2.553995806604986683e+03
2.558003372470647264e+03
2.564008263169426300e+03
2.553995806604986683e+03
2.537992037550539862e+03
2.526992010364931957e+03
2.505007415561977268e+03
2.484004487840378260e+03
2.468993474689934828e+03
2.451995749584686564e+03
2.424993709388552361e+03
2.407002027443951192e+03
2.397000731528895358e+03
2.390007293946024674e+03
2.391996262391777236e+03
2.394006034879558229e+03
2.381997804610318326e+03
2.371001237346145899e+03
2.381997804610318326e+03
2.391996262391777236e+03
2.397000731528895358e+03
2.405005688282139090e+03
2.411004664989036428e+03
2.417996797355235230e+03
2.422000310446525418e+03
2.420998189811223256e+03
2.438002693432340493e+03
2.455008616168427579e+03
2.460003453479380369e+03
2.471992335141414969e+03
2.477993224030492001e+03
2.487002193498440192e+03
2.490991470404889697e+03
2.488003037205770852e+03
2.476008402726351960e+03
2.467004464655438369e+03
2.461999684426445128e+03
2.455008616168427579e+03
2.439999702139383771e+03
2.418996434292801496e+03
2.409001683588322066e+03
2.386995257625315844e+03
2.366993419199179698e+03
2.364004963638462414e+03
2.370006581945217931e+03
2.374007418999594393e+03
2.364994586791771781e+03
2.353004538404090454e+03
2.345005761069483469e+03
2.342993614632716344e+03
2.349006760195852166e+03
2.356998992950654610e+03
2.362999127405943909e+03
2.364004963638462414e+03
2.361007032510952286e+03
2.359001310276310051e+03
2.359001310276310051e+03
2.361007032510952286e+03
2.368002659459146798e+03
2.375005436121943148e+03
2.370006581945217931e+03
2.374007418999594393e+03
2.371001237346145899e+03
2.364004963638462414e+03
2.364004963638462414e+03
2.364994586791771781e+03
2.370006581945217931e+03
2.375005436121943148e+03
2.379005909942352446e+03
2.379005909942352446e+03
2.381997804610318326e+03
2.396001667190710577e+03
2.405005688282139090e+03
2.407002027443951192e+03
2.407002027443951192e+03
2.407992592374849210e+03
2.405005688282139090e+03
2.400002929780486284e+03
2.386004514672686128e+03
2.364004963638462414e+03
2.360003745237426301e+03
2.355999108420394350e+03
2.345996334268858391e+03
2.335994867042133137e+03
2.334996080666999205e+03
2.334996080666999205e+03
2.321003570011900138e+03
2.305992469826524484e+03
2.294993556340001305e+03
2.287000523468853316e+03
2.287000523468853316e+03
2.288006591626400223e+03
2.302994096148439894e+03
2.312991917551971255e+03
2.323999602819978463e+03
2.327995339320222683e+03
2.333998148016240521e+03
2.337995005351408963e+03
2.349006760195852166e+03
2.361007032510952286e+03
2.362999127405943909e+03
2.355999108420394350e+03
2.342005575012507961e+03
2.323999602819978463e+03
2.305992469826524484e+03
2.292007666372882341e+03
2.287000523468853316e+03
2.284003540982692357e+03
2.290005381341421526e+03
2.288006591626400223e+03
2.276007696208158904e+03
2.258002274058505463e+03
2.240999617004978973e+03
2.250001716667467917e+03
2.262992506647328810e+03
2.268994266404453811e+03
2.265997247636632892e+03
2.260993769104973126e+03
2.258998559127479439e+03
2.258998559127479439e+03
2.250001716667467917e+03
2.251006416333484594e+03
2.251006416333484594e+03
2.244007670182166748e+03
2.238993624741197436e+03
2.240003828248371519e+03
2.228001822273898597e+03
2.222003716110832102e+03
2.235998990057526044e+03
2.258998559127479439e+03
2.274001693339070243e+03
2.287000523468853316e+03
2.298003352292252657e+03
2.297004577605484883e+03
2.280998524211288441e+03
2.274001693339070243e+03
2.258002274058505463e+03
2.240999617004978973e+03
2.218994216678178873e+03
2.199998657186402852e+03
2.187996634570440165e+03
2.177006790066040594e+03
2.184000746507411804e+03
2.196003002439481861e+03
2.222998643147896928e+03
2.242993852935941959e+03
2.258002274058505463e+03
2.261992696346102093e+03
2.270000277108099908e+03
2.270000277108099908e+03
2.268004845128914894e+03
2.276007696208158904e+03
2.287000523468853316e+03
2.285006973500697313e+03
2.277004113853680337e+03
2.265997247636632892e+03
2.262992506647328810e+03
2.261992696346102093e+03
2.251996536130087406e+03
2.232997137794739047e+03
2.226003899430031197e+03
2.230003334762517170e+03
2.231993242782992638e+03
2.234992394737021641e+03
2.251006416333484594e+03
2.264994781118015908e+03
2.265997247636632892e+03
2.258002274058505463e+03
2.260993769104973126e+03
2.270000277108099908e+03
2.274001693339070243e+03
2.272992133631154502e+03
2.278999568779646324e+03
2.278999568779646324e+03
2.271999223414065909e+03
2.268994266404453811e+03
2.262992506647328810e+03
2.258002274058505463e+03
2.251006416333484594e+03
2.240999617004978973e+03
2.244007670182166748e+03
2.244007670182166748e+03
2.244007670182166748e+03
2.264994781118015908e+03
2.293997395651017541e+03
2.311996387395397051e+03
2.316999010041012752e+03
2.316999010041012752e+03
2.311996387395397051e+03
2.305992469826524484e+03
2.297004577605484883e+03
2.285006973500697313e+03
2.272992133631154502e+03
2.262992506647328810e+03
2.250001716667467917e+03
2.234992394737021641e+03
2.220994624931371163e+03
2.225006281108463099e+03
2.232997137794739047e+03
2.246007265748166446e+03
2.240999617004978973e+03
2.230003334762517170e+03
2.222003716110832102e+03
2.218002870062004149e+03
2.211998676864709523e+03
2.206992705547959758e+03
2.193004765219253841e+03
2.181993740427515604e+03
2.178005251088437944e+03
2.178005251088437944e+03
2.181006136929405329e+03
2.177006790066040594e+03
2.171999390167107322e+03
2.167000641496207209e+03
2.162995332994475120e+03
2.160998225933034064e+03
2.163995271399230205e+03
2.171006426820380511e+03
2.181993740427515604e+03
2.187996634570440165e+03
2.205997199332148284e+03
2.218002870062004149e+03
2.226003899430031197e+03
2.229002129208247425e+03
2.240003828248371519e+03
2.250001716667467917e+03
2.251996536130087406e+03
2.253994895888507472e+03
2.247995005522739120e+03
2.232997137794739047e+03
2.216997408642819209e+03
2.211998676864709523e+03
2.218002870062004149e+03
2.205997199332148284e+03
2.195002679528402950e+03
2.189005204123215663e+03
2.187996634570440165e+03
2.174998174613183892e+03
2.157000855769863847e+03
2.148993940029906298e+03
2.149995078901610668e+03
2.153004100084104266e+03
2.149995078901610668e+03
2.149995078901610668e+03
2.155993183358446004e+03
2.163995271399230205e+03
2.171006426820380511e+03
2.179004628398148725e+03
2.184000746507411804e+03
2.185996864471796925e+03
2.195002679528402950e+03
2.206992705547959758e+03
2.205997199332148284e+03
2.215004191114836431e+03
2.222003716110832102e+03
2.218002870062004149e+03
2.218002870062004149e+03
2.216997408642819209e+03
2.214001445955716008e+03
2.209999527878759181e+03
2.192007171336062584e+03
2.177006790066040594e+03
2.167000641496207209e+03
2.165997924364914979e+03
2.162995332994475120e+03
2.160998225933034064e+03
2.155993183358446004e+03
2.157000855769863847e+03
2.168004287444008696e+03
2.174002468120115282e+03
2.165997924364914979e+03
2.167000641496207209e+03
2.177006790066040594e+03
2.184000746507411804e+03
2.187996634570440165e+03
2.187996634570440165e+03
2.185996864471796925e+03
2.185996864471796925e+03
2.192007171336062584e+03
2.195002679528402950e+03
2.196003002439481861e+03
2.203001250521050679e+03
2.211998676864709523e+03
2.214001445955716008e+03
2.229002129208247425e+03
2.247995005522739120e+03
2.274001693339070243e+03
2.294993556340001305e+03
2.305002954500689157e+03
2.311996387395397051e+03
2.308998661123247075e+03
2.284003540982692357e+03
2.261992696346102093e+03
2.240999617004978973e+03
2.222003716110832102e+03
2.197004237515421210e+03
2.165997924364914979e+03
2.128003636835952875e+03
2.098001050056984695e+03
2.088001019562862439e+03
2.098001050056984695e+03
2.104996049157474772e+03
2.114996094935033852e+03
2.129995579708260721e+03
2.141997986585955914e+03
2.149995078901610668e+03
2.165997924364914979e+03
2.171006426820380511e+03
2.168004287444008696e+03
2.174998174613183892e+03
2.190000066835537837e+03
2.197004237515421210e+03
2.203994053984973561e+03
2.218002870062004149e+03
2.229002129208247425e+03
2.237006492486875231e+03
2.242993852935941959e+03
2.232997137794739047e+03
2.218002870062004149e+03
2.203994053984973561e+03
2.189005204123215663e+03
2.165997924364914979e+03
2.148993940029906298e+03
2.149995078901610668e+03
2.149995078901610668e+03
2.148993940029906298e+03
2.141997986585955914e+03
2.145996109739404801e+03
2.145996109739404801e+03
2.153004100084104266e+03
2.152000157622009283e+03
2.160001054720202319e+03
2.167000641496207209e+03
2.167000641496207209e+03
2.167000641496207209e+03
2.160001054720202319e+03
2.155000624790366601e+03
2.152000157622009283e+03
2.148993940029906298e+03
2.147993733078985315e+03
2.145996109739404801e+03
2.145996109739404801e+03
2.148993940029906298e+03
2.144002198506847435e+03
2.138000782983165664e+03
2.134004571890040097e+03
2.144998690756742690e+03
2.145996109739404801e+03
2.135005701254276119e+03
2.128003636835952875e+03
2.135005701254276119e+03
2.144998690756742690e+03
2.155993183358446004e+03
2.160998225933034064e+03
2.155993183358446004e+03
2.153004100084104266e+03
2.152000157622009283e+03
2.147993733078985315e+03
2.141004279786990537e+03
2.144998690756742690e+03
2.153004100084104266e+03
2.155000624790366601e+03
2.155993183358446004e+03
2.160998225933034064e+03
2.160998225933034064e+03
2.170000000000000000e+03
2.181006136929405329e+03
2.185996864471796925e+03
2.184000746507411804e+03
2.174002468120115282e+03
2.162995332994475120e+03
2.149995078901610668e+03
2.139005666240175742e+03
2.136996843450812776e+03
2.126001622060016416e+03
2.111997009287965739e+03
2.109997810604401820e+03
2.135005701254276119e+03
2.144998690756742690e+03
2.157000855769863847e+03
2.187996634570440165e+03
2.206992705547959758e+03
2.208003989191447545e+03
2.197004237515421210e+03
2.184000746507411804e+03
2.181006136929405329e+03
2.174998174613183892e+03
2.149995078901610668e+03
2.109997810604401820e+03
2.077002554496992161e+03
2.053996790532069554e+03
2.025004326007959889e+03
2.014001573486748157e+03
2.019998397169154259e+03
2.024003656758826992e+03
2.029004353129857009e+03
2.032994986846676966e+03
2.036001441548919274e+03
2.042996003416735903e+03
2.061997747138299019e+03
2.077002554496992161e+03
2.084003790601090259e+03
2.089998724327082527e+03
2.093002459199642090e+03
2.090999010880316291e+03
2.079005640540832246e+03
2.071003299245345261e+03
2.066002105913582000e+03
2.079005640540832246e+03
2.090999010880316291e+03
2.105997210599721257e+03
2.120004399557456509e+03
2.119003582653232570e+03
2.119003582653232570e+03
2.120004399557456509e+03
2.120004399557456509e+03
2.126995254879814183e+03
2.124003370713684035e+03
2.113004842880449814e+03
2.101000904083765363e+03
2.088001019562862439e+03
2.085993850306529566e+03
2.085993850306529566e+03
2.082996942284831675e+03
2.071998583551491720e+03
2.071003299245345261e+03
2.082996942284831675e+03
2.096994054666351076e+03
2.101000904083765363e+03
2.105997210599721257e+03
2.098995567171445600e+03
2.093002459199642090e+03
2.088001019562862439e+03
2.090999010880316291e+03
2.087003598611509005e+03
2.090999010880316291e+03
2.093002459199642090e+03
2.096994054666351076e+03
2.105997210599721257e+03
2.109997810604401820e+03
2.113004842880449814e+03
2.109997810604401820e+03
2.121995130038338175e+03
2.124003370713684035e+03
2.122998775454669158e+03
2.117004780979454608e+03
2.120004399557456509e+03
2.117004780979454608e+03
2.116006793539679620e+03
2.113004842880449814e+03
2.114996094935033852e+03
2.109006417064112611e+03
2.108002393190985458e+03
2.098995567171445600e+03
2.088001019562862439e+03
2.093002459199642090e+03
2.093002459199642090e+03
2.087003598611509005e+03
2.077002554496992161e+03
2.067997071594466433e+03
2.064999558855039595e+03
2.066002105913582000e+03
2.064999558855039595e+03
2.069002532029222493e+03
2.072994824946541485e+03
2.079005640540832246e+03
2.082996942284831675e+03
2.079005640540832246e+03
2.066002105913582000e+03
2.057001161367274563e+03
2.055001567889620674e+03
2.055001567889620674e+03
2.053005858212462044e+03
2.039994272302223180e+03
2.025004326007959889e+03
2.010997980839455067e+03
1.994995311910183318e+03
1.991999659559981183e+03
1.987999320487307841e+03
1.978002740602570384e+03
1.969999398785546873e+03
1.969999398785546873e+03
1.966004271965824501e+03
1.959994975445480577e+03
1.966004271965824501e+03
1.958003931902790100e+03
1.943994541840942247e+03
1.938004211123991809e+03
1.934000684664691562e+03
1.934000684664691562e+03
1.931003188185444969e+03
1.934000684664691562e+03
1.943994541840942247e+03
1.962001820272082568e+03
1.979998791467762430e+03
1.999999999999999773e+03
2.017995491889095319e+03
2.037001349007515955e+03
2.047003554628200845e+03
2.050000312814770041e+03
2.051001183017131552e+03
2.066002105913582000e+03
2.071998583551491720e+03
2.061997747138299019e+03
2.071003299245345261e+03
2.075003324615453039e+03
2.069002532029222493e+03
2.055001567889620674e+03
2.042002928987629502e+03
2.024003656758826992e+03
1.996003971662311187e+03
1.969005011597581870e+03
1.940000710471160801e+03
1.907997787288554946e+03
1.886000759764703162e+03
1.879003354646328489e+03
1.875003576394650963e+03
1.885002588736121652e+03
1.886999988482314620e+03
1.885002588736121652e+03
1.878001811116587760e+03
1.882998592075395891e+03
1.899998840297347897e+03
1.911994678368032964e+03
1.918004671064569493e+03
1.926994507239387758e+03
1.934994301371804340e+03
1.946997831189280760e+03
1.950997320631139928e+03
1.952997413248459452e+03
1.950997320631139928e+03
1.959994975445480577e+03
1.974998342464845109e+03
1.989000916590284078e+03
1.985999151463725184e+03
1.974998342464845109e+03
1.974998342464845109e+03
1.973998903568222886e+03
1.969005011597581870e+03
1.959994975445480577e+03
1.955001610920849998e+03
1.956005253104107169e+03
1.956005253104107169e+03
1.958998947771187886e+03
1.974998342464845109e+03
2.003999804290921702e+03
2.024003656758826992e+03
2.036001441548919274e+03
2.039004113228915912e+03
2.057001161367274563e+03
2.069002532029222493e+03
2.071003299245345261e+03
2.094005623721881420e+03
2.129995579708260721e+03
2.144998690756742690e+03
2.155000624790366601e+03
2.163995271399230205e+03
2.174002468120115282e+03
2.192007171336062584e+03
2.215004191114836431e+03
2.250001716667467917e+03
2.274001693339070243e+03
2.299002995923579419e+03
2.335994867042133137e+03
2.362999127405943909e+03
2.381997804610318326e+03
2.407002027443951192e+03
2.433006378223452884e+03
2.466001881467544536e+03
2.499008541793776658e+03
2.525005779455960692e+03
2.556007987768729436e+03
2.589007759042998714e+03
2.611998597028250515e+03
2.612998405103668574e+03
2.557005290840135331e+03
2.448002271165167713e+03
2.327003380393716270e+03
2.196003002439481861e+03
2.076002458232227127e+03
1.966995629832396844e+03
1.872004204825265788e+03
1.793997196793832927e+03
1.740000849635718623e+03
1.718996731666115920e+03
1.709998956267613039e+03
1.696998259860788721e+03
1.689996286515926840e+03
1.689996286515926840e+03
1.725996080992814996e+03
1.770002808928069953e+03
1.810001491440787049e+03
1.845996969065311532e+03
1.879995180529338313e+03
1.901001931924324481e+03
1.915000555208144533e+03
1.940000710471160801e+03
1.948004851136688103e+03
1.962001820272082568e+03
1.973000475682966226e+03
1.966995629832396844e+03
1.966995629832396844e+03
1.970994790852110555e+03
1.979998791467762430e+03
1.987999320487307841e+03
1.994995311910183318e+03
1.991999659559981183e+03
1.985999151463725184e+03
1.981998874929683097e+03
1.969005011597581870e+03
1.951996854596578032e+03
1.949001320469658822e+03
1.955001610920849998e+03
1.955001610920849998e+03
1.949001320469658822e+03
1.952997413248459452e+03
1.958998947771187886e+03
1.966004271965824501e+03
1.966995629832396844e+03
1.969999398785546873e+03
1.973000475682966226e+03
1.987999320487307841e+03
1.997001480975859295e+03
2.002995293110825742e+03
2.012999379519219701e+03
2.014001573486748157e+03
2.012999379519219701e+03
2.014001573486748157e+03
2.012999379519219701e+03
2.006994805958447614e+03
2.014001573486748157e+03
2.024003656758826992e+03
2.019998397169154259e+03
2.009000557936493578e+03
1.997001480975859295e+03
1.993005291648926686e+03
1.985000575502959236e+03
1.979998791467762430e+03
1.978002740602570384e+03
1.985999151463725184e+03
1.998999493646174642e+03
2.015004765858007886e+03
2.032994986846676966e+03
2.042996003416735903e+03
2.053996790532069554e+03
2.066002105913582000e+03
2.075003324615453039e+03
2.076002458232227127e+03
2.076002458232227127e+03
2.072994824946541485e+03
2.064999558855039595e+03
2.057001161367274563e+03
2.048001500046876572e+03
2.039004113228915912e+03
2.026005985210100562e+03
2.019998397169154259e+03
2.012999379519219701e+03
2.002995293110825742e+03
1.997001480975859295e+03
1.997001480975859295e+03
1.993005291648926686e+03
1.993005291648926686e+03
2.005999571459181652e+03
2.015004765858007886e+03
2.003999804290921702e+03
2.002995293110825742e+03
2.012999379519219701e+03
2.010997980839455067e+03
2.015004765858007886e+03
2.019998397169154259e+03
2.017995491889095319e+03
2.020995108953760109e+03
2.025004326007959889e+03
2.017995491889095319e+03
2.012999379519219701e+03
2.009000557936493578e+03
2.009998773156667994e+03
2.006994805958447614e+03
2.005999571459181652e+03
2.002995293110825742e+03
2.002004020260156040e+03
1.994995311910183318e+03
1.999999999999999773e+03
2.015004765858007886e+03
2.020995108953760109e+03
2.020995108953760109e+03
2.024003656758826992e+03
2.022005282255078555e+03
2.020995108953760109e+03
2.026005985210100562e+03
2.025004326007959889e+03
2.026005985210100562e+03
2.019998397169154259e+03
2.006994805958447614e+03
1.997001480975859295e+03
1.996003971662311187e+03
1.989000916590284078e+03
1.984003003221197105e+03
1.981004316651149111e+03
1.987999320487307841e+03
2.002995293110825742e+03
2.015004765858007886e+03
2.026005985210100562e+03
2.036001441548919274e+03
2.057995955231192511e+03
2.079995429558063734e+03
2.098995567171445600e+03
2.126995254879814183e+03
2.141997986585955914e+03
2.144998690756742690e+03
2.141997986585955914e+03
2.128003636835952875e+03
2.108002393190985458e+03
2.090999010880316291e+03
2.079005640540832246e+03
2.064999558855039595e+03
2.050000312814770041e+03
2.027999727677272858e+03
1.999999999999999773e+03
1.973998903568222886e+03
1.938004211123991809e+03
1.903995444403124111e+03
1.882003595490129783e+03
1.865003927282661834e+03
1.853997748066335816e+03
1.858003130032434456e+03
1.868002189131872456e+03
1.872999359795134524e+03
1.886999988482314620e+03
1.901001931924324481e+03
1.911994678368032964e+03
1.929002443116592758e+03
1.943994541840942247e+03
1.944998456680200206e+03
1.941000503509759255e+03
1.943994541840942247e+03
1.943994541840942247e+03
1.934994301371804340e+03
1.930002297130942452e+03
1.931003188185444969e+03
1.934994301371804340e+03
1.942001327580484485e+03
1.951996854596578032e+03
1.964001006964839917e+03
1.973998903568222886e+03
1.991999659559981183e+03
2.022005282255078555e+03
2.053996790532069554e+03
2.064999558855039595e+03
2.069002532029222493e+03
2.082004295281544273e+03
2.101000904083765363e+03
2.117004780979454608e+03
2.131006809180361870e+03
2.141997986585955914e+03
2.144002198506847435e+03
2.128003636835952875e+03
2.103995839139061445e+03
2.085993850306529566e+03
2.061997747138299019e+03
2.045993805884409767e+03
2.027999727677272858e+03
1.999999999999999773e+03
1.970994790852110555e+03
1.948004851136688103e+03
1.941000503509759255e+03
1.938004211123991809e+03
1.936996051169279554e+03
1.940000710471160801e+03
1.946997831189280760e+03
1.958003931902790100e+03
1.964001006964839917e+03
1.962001820272082568e+03
1.959994975445480577e+03
1.969999398785546873e+03
1.969005011597581870e+03
1.962001820272082568e+03
1.969999398785546873e+03
1.977000259440934769e+03
1.984003003221197105e+03
1.979998791467762430e+03
1.978002740602570384e+03
1.979998791467762430e+03
1.985999151463725184e+03
1.999999999999999773e+03
2.009000557936493578e+03
2.012999379519219701e+03
2.020995108953760109e+03
2.031004004115685348e+03
2.031999007782704666e+03
2.036001441548919274e+03
2.039004113228915912e+03
2.039994272302223180e+03
2.039994272302223180e+03
2.037001349007515955e+03
2.036001441548919274e+03
2.042002928987629502e+03
2.044002794620355871e+03
2.039994272302223180e+03
2.035002515262363431e+03
2.031999007782704666e+03
2.039004113228915912e+03
2.044002794620355871e+03
2.050000312814770041e+03
2.053005858212462044e+03
2.053996790532069554e+03
2.050000312814770041e+03
2.047003554628200845e+03
2.057001161367274563e+03
2.061997747138299019e+03
2.060001383099778195e+03
2.057001161367274563e+03
2.053996790532069554e+03
2.051001183017131552e+03
2.061997747138299019e+03
2.066002105913582000e+03
2.063997984315454687e+03
2.057995955231192511e+03
2.057995955231192511e+03
2.067997071594466433e+03
2.072994824946541485e+03
2.072994824946541485e+03
2.066002105913582000e+03
2.060999081680147810e+03
2.061997747138299019e+03
2.075003324615453039e+03
2.085993850306529566e+03
2.094005623721881420e+03
2.093002459199642090e+03
2.089998724327082527e+03
2.089998724327082527e+03
2.079005640540832246e+03
2.082004295281544273e+03
2.094005623721881420e+03
2.096994054666351076e+03
2.098995567171445600e+03
2.101000904083765363e+03
2.098001050056984695e+03
2.103995839139061445e+03
2.114996094935033852e+03
2.131006809180361870e+03
2.144002198506847435e+03
2.155993183358446004e+03
2.160001054720202319e+03
2.155993183358446004e+03
2.157000855769863847e+03
2.160998225933034064e+03
2.160998225933034064e+03
2.159004803352463114e+03
2.149995078901610668e+03
2.131006809180361870e+03
2.119003582653232570e+03
2.121995130038338175e+03
2.141004279786990537e+03
2.163995271399230205e+03
2.177006790066040594e+03
2.167000641496207209e+03
2.157000855769863847e+03
2.141997986585955914e+03
2.126995254879814183e+03
2.101000904083765363e+03
2.064999558855039595e+03
2.019998397169154259e+03
1.977000259440934769e+03
1.958003931902790100e+03
1.930002297130942452e+03
1.889001625716295166e+03
1.853997748066335816e+03
1.828995328015718542e+03
1.817995195215188687e+03
1.825002088612882517e+03
1.836005132544026992e+03
1.857002793976798102e+03
1.870999423288852086e+03
1.879995180529338313e+03
1.886000759764703162e+03
1.899998840297347897e+03
1.899998840297347897e+03
1.894002450810385881e+03
1.886999988482314620e+03
1.882003595490129783e+03
1.872999359795134524e+03
1.863996040707894053e+03
1.851002412115939705e+03
1.839003692936277275e+03
1.838003085121301410e+03
1.845996969065311532e+03
1.856003534489595040e+03
1.862004693795212006e+03
1.861000045435958100e+03
1.861000045435958100e+03
1.857002793976798102e+03
1.859996480612146343e+03
1.868002189131872456e+03
1.872004204825265788e+03
1.869003753179935757e+03
1.859996480612146343e+03
1.865003927282661834e+03
1.885002588736121652e+03
1.894002450810385881e+03
1.901995042867010852e+03
1.901995042867010852e+03
1.907997787288554946e+03
1.907997787288554946e+03
1.901001931924324481e+03
1.896995906930429555e+03
1.892995794241345948e+03
1.897995829471733259e+03
1.901001931924324481e+03
1.901995042867010852e+03
1.915000555208144533e+03
1.918004671064569493e+03
1.912999311093726419e+03
1.915997146499198834e+03
1.923996077671499279e+03
1.930002297130942452e+03
1.934000684664691562e+03
1.938004211123991809e+03
1.944998456680200206e+03
1.943994541840942247e+03
1.932996684639616888e+03
1.920005156421209449e+03
1.912999311093726419e+03
1.915997146499198834e+03
1.911002245356195090e+03
1.901001931924324481e+03
1.901001931924324481e+03
1.896995906930429555e+03
1.901001931924324481e+03
1.918004671064569493e+03
1.932996684639616888e+03
1.951996854596578032e+03
1.973000475682966226e+03
1.996003971662311187e+03
2.020995108953760109e+03
2.035002515262363431e+03
2.051001183017131552e+03
2.069002532029222493e+03
2.060999081680147810e+03
2.042002928987629502e+03
2.020995108953760109e+03
1.989000916590284078e+03
1.956005253104107169e+03
1.925997766413918498e+03
1.920005156421209449e+03
1.919004392386530071e+03
1.905002761547629234e+03
1.879995180529338313e+03
1.856003534489595040e+03
1.842996310295176499e+03
1.859996480612146343e+03
1.894002450810385881e+03
1.934000684664691562e+03
1.958003931902790100e+03
1.958998947771187886e+03
1.958998947771187886e+03
1.958998947771187886e+03
1.959994975445480577e+03
1.964001006964839917e+03
1.959994975445480577e+03
1.942001327580484485e+03
1.915000555208144533e+03
1.876001923693491563e+03
1.834001253750056094e+03
1.801998493155958158e+03
1.778003266572974326e+03
1.754995795551318452e+03
1.748002176533976353e+03
1.749000517755822102e+03
1.737003090526449569e+03
1.731999196557884716e+03
1.737998122344629337e+03
1.744001618019629177e+03
1.752002395388876494e+03
1.761998225472535296e+03
1.765996205751735260e+03
1.773000524860533005e+03
1.777000460966946093e+03
1.783995383074175606e+03
1.789001845401238370e+03
1.791995712379410634e+03
1.789001845401238370e+03
1.790996643965149588e+03
1.796003157133147852e+03
1.796003157133147852e+03
1.801998493155958158e+03
1.810001491440787049e+03
1.823001858219002770e+03
1.834997507938196804e+03
1.834997507938196804e+03
1.836005132544026992e+03
1.834997507938196804e+03
1.832001744390832982e+03
1.830998508021479893e+03
1.820995887518061636e+03
1.812995894519016929e+03
1.813999579259718303e+03
1.811001862567911985e+03
1.809002224884477300e+03
1.812995894519016929e+03
1.812995894519016929e+03
1.825002088612882517e+03
1.834997507938196804e+03
1.836005132544026992e+03
1.825002088612882517e+03
1.816997160855292350e+03
1.823001858219002770e+03
1.839003692936277275e+03
1.857002793976798102e+03
1.865003927282661834e+03
1.882998592075395891e+03
1.901995042867010852e+03
1.908998223076698878e+03
1.907997787288554946e+03
1.901001931924324481e+03
1.894002450810385881e+03
1.894002450810385881e+03
1.885002588736121652e+03
1.867001697947648609e+03
1.844999127247338265e+03
1.825002088612882517e+03
1.809002224884477300e+03
1.790996643965149588e+03
1.780999124909637430e+03
1.787001739718481758e+03
1.791995712379410634e+03
1.794999616535010318e+03
1.787996354925488731e+03
1.789001845401238370e+03
1.783995383074175606e+03
1.784996377383981098e+03
1.780999124909637430e+03
1.775998785901278552e+03
1.777000460966946093e+03
1.783995383074175606e+03
1.787996354925488731e+03
1.787996354925488731e+03
1.793997196793832927e+03
1.802999955980102868e+03
1.816997160855292350e+03
1.827995380778907702e+03
1.828995328015718542e+03
1.828995328015718542e+03
1.836005132544026992e+03
1.839003692936277275e+03
1.851002412115939705e+03
1.858003130032434456e+03
1.861000045435958100e+03
1.863996040707894053e+03
1.862004693795212006e+03
1.851002412115939705e+03
1.848996981068194145e+03
1.844999127247338265e+03
1.838003085121301410e+03
1.834997507938196804e+03
1.838003085121301410e+03
1.839003692936277275e+03
1.834997507938196804e+03
1.839995058456216839e+03
1.859996480612146343e+03
1.879995180529338313e+03
1.901001931924324481e+03
1.936996051169279554e+03
1.963000904608711835e+03
1.979998791467762430e+03
1.987999320487307841e+03
1.984003003221197105e+03
1.966004271965824501e+03
1.944998456680200206e+03
1.923996077671499279e+03
1.882998592075395891e+03
1.844999127247338265e+03
1.809002224884477300e+03
1.782995510814854924e+03
1.765996205751735260e+03
1.760001289102784540e+03
1.761998225472535296e+03
1.765996205751735260e+03
1.768999454729011177e+03
1.770002808928069953e+03
1.773000524860533005e+03
1.777000460966946093e+03
1.780002607505269225e+03
1.778003266572974326e+03
1.765996205751735260e+03
1.772003352891869326e+03
1.789001845401238370e+03
1.804996281708761217e+03
1.811001862567911985e+03
1.823001858219002770e+03
1.838003085121301410e+03
1.848996981068194145e+03
1.844999127247338265e+03
1.839995058456216839e+03
1.838003085121301410e+03
1.830998508021479893e+03
1.827995380778907702e+03
1.823996348333370406e+03
1.806997033099142755e+03
1.796003157133147852e+03
1.799000768639508124e+03
1.806001080282637304e+03
1.812995894519016929e+03
1.802999955980102868e+03
1.793997196793832927e+03
1.787001739718481758e+03
1.784996377383981098e+03
1.782995510814854924e+03
1.780999124909637430e+03
1.780002607505269225e+03
1.778003266572974326e+03
1.780999124909637430e+03
1.780002607505269225e+03
1.777000460966946093e+03
1.782995510814854924e+03
1.790996643965149588e+03
1.791995712379410634e+03
1.793997196793832927e+03
1.798003742297287772e+03
1.801998493155958158e+03
1.804996281708761217e+03
1.810001491440787049e+03
1.823001858219002770e+03
1.839003692936277275e+03
1.853997748066335816e+03
1.870999423288852086e+03
1.875003576394650963e+03
1.865003927282661834e+03
1.861000045435958100e+03
1.856003534489595040e+03
1.853001719145855986e+03
1.842996310295176499e+03
1.830998508021479893e+03
1.816997160855292350e+03
1.799998901334329275e+03
1.775998785901278552e+03
1.766996155069861288e+03
1.763003136786488767e+03
1.752002395388876494e+03
1.740999319901385888e+03
1.731999196557884716e+03
1.740999319901385888e+03
1.746995660101726344e+03
1.729996568200417187e+03
1.725996080992814996e+03
1.733997290546547674e+03
1.746995660101726344e+03
1.764997387543159221e+03
1.782995510814854924e+03
1.798003742297287772e+03
1.799998901334329275e+03
1.802999955980102868e+03
1.806001080282637304e+03
1.801998493155958158e+03
1.806997033099142755e+03
1.816000221686479790e+03
1.811001862567911985e+03
1.806001080282637304e+03
1.790996643965149588e+03
1.780002607505269225e+03
1.770002808928069953e+03
1.761998225472535296e+03
1.765996205751735260e+03
1.766996155069861288e+03
1.761998225472535296e+03
1.757999442024164637e+03
1.760001289102784540e+03
1.764997387543159221e+03
1.763003136786488767e+03
1.768999454729011177e+03
1.780999124909637430e+03
1.783995383074175606e+03
1.780002607505269225e+03
1.777000460966946093e+03
1.783995383074175606e+03
1.789001845401238370e+03
1.793997196793832927e+03
1.789001845401238370e+03
1.784996377383981098e+03
1.790996643965149588e+03
1.791995712379410634e+03
1.778003266572974326e+03
1.772003352891869326e+03
1.772003352891869326e+03
1.768999454729011177e+03
1.766996155069861288e+03
1.761998225472535296e+03
1.753999989294106854e+03
1.754995795551318452e+03
1.758999796008202566e+03
1.760001289102784540e+03
1.760001289102784540e+03
1.760001289102784540e+03
1.758999796008202566e+03
1.753999989294106854e+03
1.748002176533976353e+03
1.742999702114983620e+03
1.737003090526449569e+03
1.731999196557884716e+03
1.726996742808352565e+03
1.725996080992814996e+03
1.723001041151787376e+03
1.713997269488892243e+03
1.712000250788940093e+03
1.709998956267613039e+03
1.706996879509473501e+03
1.700997747022851627e+03
1.700000518814819543e+03
1.708002335230708240e+03
1.703996463766608485e+03
1.698000766942697055e+03
1.698000766942697055e+03
1.695996935849525471e+03
1.693997828671871048e+03
1.696998259860788721e+03
1.693997828671871048e+03
1.689003206152513712e+03
1.682999989727469710e+03
1.682999989727469710e+03
1.678998555016960836e+03
1.673997782784393621e+03
1.671001366705423834e+03
1.664000568767551840e+03
1.656002991893585659e+03
1.658996207806147368e+03
1.658996207806147368e+03
1.649998992889802139e+03
1.647999034346096551e+03
1.634998253580160736e+03
1.627001663397800257e+03
1.631002334483153390e+03
1.636002336646911544e+03
1.634003550555522224e+03
1.632001514110111657e+03
1.632001514110111657e+03
1.629996269120756097e+03
1.628004034361631966e+03
1.622996453549422540e+03
1.619002915163792522e+03
1.620003460806367684e+03
1.613001678620479197e+03
1.605997186674443356e+03
1.603003766938995341e+03
1.609001807039597907e+03
1.609001807039597907e+03
1.609001807039597907e+03
1.609997936341034347e+03
1.620997224709485181e+03
1.629996269120756097e+03
1.622996453549422540e+03
1.616000710178235067e+03
1.612001830087224334e+03
1.598998643386264121e+03
1.591998950554602743e+03
1.591001786824114561e+03
1.584002861811255798e+03
1.583000391317580807e+03
1.580999252129019851e+03
1.591001786824114561e+03
1.598998643386264121e+03
1.605997186674443356e+03
1.605997186674443356e+03
1.604998138678265605e+03
1.603003766938995341e+03
1.602000606244316486e+03
1.589998156073795826e+03
1.569000191534188843e+03
1.555001898253606669e+03
1.543000296667435805e+03
1.535998724962147435e+03
1.531998653475715855e+03
1.543000296667435805e+03
1.573997127444434454e+03
1.609001807039597907e+03
1.628004034361631966e+03
1.646003918219721754e+03
1.649002556515087463e+03
1.645004041347249540e+03
1.636002336646911544e+03
1.620003460806367684e+03
1.603003766938995341e+03
1.593997032568773875e+03
1.572999726368039774e+03
1.550000000000000000e+03
1.527997985488052791e+03
1.507998600935164404e+03
1.510000000000000000e+03
1.516997763878536261e+03
1.527997985488052791e+03
1.546999669515131473e+03
1.569000191534188843e+03
1.583000391317580807e+03
1.598000487685930239e+03
1.604998138678265605e+03
1.602000606244316486e+03
1.602000606244316486e+03
1.594997955567670488e+03
1.587002533043381618e+03
1.584998935820289034e+03
1.572999726368039774e+03
1.562997872563703822e+03
1.558997050147492473e+03
1.561999466097170398e+03
1.558997050147492473e+03
1.556996911380375195e+03
1.550000000000000000e+03
1.543996381148042929e+03
1.550997803695849825e+03
1.550997803695849825e+03
1.545999707474038360e+03
1.538999863792852466e+03
1.534998547778100601e+03
1.527997985488052791e+03
1.516997763878536261e+03
1.497002978746733334e+03
1.478001605788054121e+03
1.472998547994839328e+03
1.483999239137326640e+03
1.489002999182041322e+03
1.495998283348019413e+03
1.501000911585379754e+03
1.503997870250520918e+03
1.513997791403105794e+03
1.520997442336525410e+03
1.516997763878536261e+03
1.514998797876865638e+03
1.520997442336525410e+03
1.522998122222841857e+03
1.513997791403105794e+03
1.519002011923194459e+03
1.533002095965266790e+03
1.525998370008150005e+03
1.522000659578520072e+03
1.519002011923194459e+03
1.506999889620662998e+03
1.503997870250520918e+03
1.492999075048639725e+03
1.477002271825754633e+03
1.475001012833728737e+03
1.478001605788054121e+03
1.479002292956830843e+03
1.485001336940807505e+03
1.481999095431931210e+03
1.481001044072515469e+03
1.483999239137326640e+03
1.488002252415897601e+03
1.479002292956830843e+03
1.477002271825754633e+03
1.477002271825754633e+03
1.466997371967353502e+03
1.464002001626321544e+03
1.469998429824364621e+03
1.466997371967353502e+03
1.459996791901333154e+03
1.456000497671607945e+03
1.445001565524935813e+03
1.442000061610769762e+03
1.438000570513242565e+03
1.426997413139856008e+03
1.423000256224295981e+03
1.421999835090201259e+03
1.417000371904757912e+03
1.411999431184042123e+03
1.411999431184042123e+03
1.411999431184042123e+03
1.396997693485054469e+03
1.380000168462192960e+03
1.362000166264859899e+03
1.344000459389176513e+03
1.332999747776774484e+03
1.328002464142271720e+03
1.328002464142271720e+03
1.322001621889864737e+03
1.317001607717041907e+03
1.308999244969459141e+03
1.309998800623675606e+03
1.314998454925976830e+03
1.309998800623675606e+03
1.295998924186811792e+03
1.281999115781731007e+03
1.276997903302493341e+03
1.277999009333328104e+03
1.277999009333328104e+03
1.281001751423031237e+03
1.285000549028219893e+03
1.288999036210931990e+03
1.295998924186811792e+03
1.305999298514125257e+03
1.313001386451245708e+03
1.303998312646001978e+03
1.298999397418413764e+03
1.298001125010893702e+03
1.299999206519237987e+03
1.298999397418413764e+03
1.298001125010893702e+03
1.288999036210931990e+03
1.277999009333328104e+03
1.266998944393103329e+03
1.248000426575663823e+03
1.230999842213222564e+03
1.226998689384010504e+03
1.225997874792343282e+03
1.225997874792343282e+03
1.236999369552004282e+03
1.251002191458656398e+03
1.275000389111114600e+03
1.295000138325158787e+03
1.298999397418413764e+03
1.306999489437743250e+03
1.313001386451245708e+03
1.303998312646001978e+03
1.291997713069021984e+03
1.280000937529297744e+03
1.262999252229819831e+03
1.237999523948057458e+03
1.208000000000000000e+03
1.177999554210197175e+03
1.158000014136173832e+03
1.153000292059157800e+03
1.150001754816972607e+03
1.156998238037901729e+03
1.164999182257112579e+03
1.168001596925917738e+03
1.175000358592595830e+03
1.189999745780870398e+03
1.219999851069691886e+03
1.252001207411058431e+03
1.269000933345209887e+03
1.280000937529297744e+03
1.295000138325158787e+03
1.319999194311841620e+03
1.336997457962534554e+03
1.328998921128839811e+03
1.298001125010893702e+03
1.266998944393103329e+03
1.236000829859866826e+03
1.200001464890243142e+03
1.171999628016109682e+03
1.155998193697698525e+03
1.144998689612998987e+03
1.131000251970026056e+03
1.120998145753364724e+03
1.117000968133411561e+03
1.129001137029252732e+03
1.150001754816972607e+03
1.172998167134429195e+03
1.208000000000000000e+03
1.237999523948057458e+03
1.255998834731144825e+03
1.290999996060060539e+03
1.342002334486924838e+03
1.386000829054116821e+03
1.436997859874399182e+03
1.481999095431931210e+03
1.510000000000000000e+03
1.535998724962147435e+03
1.558997050147492473e+03
1.573997127444434454e+03
1.603003766938995341e+03
1.634998253580160736e+03
1.659996352435762219e+03
1.684999202933205652e+03
1.706996879509473501e+03
1.740000849635718623e+03
1.766996155069861288e+03
1.806001080282637304e+03
1.845996969065311532e+03
1.825002088612882517e+03
1.733997290546547674e+03
1.627001663397800257e+03
1.510000000000000000e+03
1.349997322006105833e+03
1.205001379056725227e+03
1.081001725406361402e+03
9.700003552355804004e+02
8.920001197790621745e+02
8.510002830867362036e+02
8.330007296096969185e+02
8.060009150436121672e+02
7.750000000000000000e+02
7.629991850040750023e+02
7.809997330485851990e+02
8.239995171730482753e+02
8.680000000000000000e+02
9.099998055971361737e+02
9.589995287974969642e+02
1.008001378168942551e+03
1.055998504643982869e+03
1.098001501219740931e+03
1.129001137029252732e+03
1.146998697825508771e+03
1.160999323249395047e+03
1.168001596925917738e+03
1.166999074008120260e+03
1.169001673213247159e+03
1.160999323249395047e+03
1.145999825128967359e+03
1.127001324184422856e+03
1.109001435031002075e+03
1.083998557623916895e+03
1.062001685356842017e+03
1.055998504643982869e+03
1.066998811442713304e+03
1.078000138175621260e+03
1.073001568552968820e+03
1.054998905302200910e+03
1.044999362163541264e+03
1.038001229116113564e+03
1.033998535797233217e+03
1.043000245097259040e+03
1.040998840404746261e+03
1.035999291775745860e+03
1.033998535797233217e+03
1.033001052956791000e+03
1.033001052956791000e+03
1.015999503891352333e+03
9.999999999999998863e+02
9.979989461725656383e+02
9.979989461725656383e+02
9.979989461725656383e+02
9.929995757318625920e+02
9.979989461725656383e+02
9.999999999999998863e+02
9.929995757318625920e+02
9.939996602436539206e+02
9.939996602436539206e+02
9.869994517841114430e+02
9.859985616403317863e+02
9.829991870089428403e+02
9.929995757318625920e+02
1.008001378168942551e+03
1.018000720774459637e+03
1.030000691549889098e+03
1.036999294256896746e+03
1.040998840404746261e+03
1.050999133976970143e+03
1.049000525028492348e+03
1.050999133976970143e+03
1.055998504643982869e+03
1.058998432525895623e+03
1.063000811030008208e+03
1.062001685356842017e+03
1.057999980626850402e+03
1.054998905302200910e+03
1.054998905302200910e+03
1.057999980626850402e+03
1.058998432525895623e+03
1.046999466387185748e+03
1.040998840404746261e+03
1.048000716428603255e+03
1.050999133976970143e+03
1.052001297062666708e+03
1.065001251336655059e+03
1.074000386767313557e+03
1.065001251336655059e+03
1.061001000547224976e+03
1.058998432525895623e+03
1.062001685356842017e+03
1.069000391491582832e+03
1.087001234060057641e+03
1.095000033417768918e+03
1.098999506964544935e+03
1.098001501219740931e+03
1.102000733164951953e+03
1.112998169176265264e+03
1.117000968133411561e+03
1.107000722977858004e+03
1.095999919724118627e+03
1.088001009406741105e+03
